0.50978
0.49022
0.49511
0.5
0.50489
0.50978
0.51957
0.49511
0.49022
0.50489
0.51957
0.5499
0.55479
0.53523
0.50978
0.5
0.49511
0.47456
0.47456
0.48043
0.45988
0.46477
0.46477
0.47456
0.47456
0.46477
0.47456
0.46477
0.47456
0.49022
0.47456
0.46967
0.46477
0.49022
0.5
0.50489
0.49022
0.49511
0.45499
0.4501
0.49511
0.59491
0.61057
0.49022
0.44521
0.43542
0.54501
0.56458
0.57045
0.57045
0.59491
0.5998
0.50489
0.46477
0.42955
0.41977
0.4501
0.44031
0.42466
0.43542
0.42955
0.43542
0.42955
0.44031
0.42955
0.42466
0.42955
0.42466
0.42466
0.40998
0.4002
0.37965
0.36008
0.36986
0.36497
0.36008
0.36497
0.37965
0.37965
0.38454
0.41487
0.40998
0.43542
0.45499
0.47456
0.46967
0.48532
0.50489
0.51957
0.51957
0.51468
0.51468
0.51957
0.53033
0.52544
0.53523
0.53033
0.51957
0.50978
0.49511
0.5
0.50978
0.50978
0.5
0.51957
0.5
0.49511
0.49511
0.5
0.50978
0.51957
0.53523
0.54012
0.53033
0.51957
0.5
0.49511
0.47456
0.46967
0.48532
0.46967
0.46477
0.46967
0.46477
0.46967
0.48532
0.48043
0.48043
0.46967
0.46967
0.46477
0.48532
0.47456
0.49511
0.49022
0.49511
0.49022
0.5
0.51468
0.45988
0.44521
0.5
0.56458
0.57534
0.50489
0.45988
0.49511
0.57534
0.59002
0.5998
0.62524
0.5998
0.53033
0.44521
0.42955
0.40998
0.42466
0.42955
0.43542
0.44031
0.4501
0.4501
0.47456
0.44521
0.42955
0.43542
0.41977
0.41977
0.42466
0.40509
0.41977
0.40509
0.38454
0.37965
0.37965
0.37476
0.36986
0.40509
0.37965
0.37476
0.4002
0.40998
0.42955
0.4501
0.47456
0.48532
0.5
0.50978
0.51468
0.51957
0.51468
0.50489
0.50978
0.5
0.50978
0.51957
0.51957
0.5
0.49511
0.49511
0.50489
0.52544
0.49022
0.49511
0.5
0.48532
0.50489
0.51468
0.51957
0.51468
0.50978
0.53033
0.54501
0.54012
0.54501
0.5
0.5
0.48532
0.48043
0.46477
0.46967
0.45988
0.47456
0.4501
0.45499
0.47456
0.45499
0.4501
0.48043
0.47456
0.48043
0.47456
0.47456
0.47456
0.47456
0.47456
0.49022
0.5
0.48532
0.45499
0.42466
0.48532
0.55969
0.59002
0.50489
0.45499
0.44521
0.53523
0.55969
0.56458
0.53523
0.56458
0.57534
0.46477
0.41977
0.42955
0.44031
0.4501
0.42955
0.42466
0.43542
0.44031
0.42955
0.42466
0.44031
0.44521
0.44521
0.41977
0.41977
0.42466
0.40509
0.41977
0.38943
0.36986
0.36008
0.35519
0.37476
0.37965
0.35519
0.36497
0.38454
0.38943
0.41487
0.42466
0.44521
0.45988
0.47456
0.5
0.50978
0.5
0.50489
0.51957
0.52544
0.53033
0.51957
0.51957
0.53523
0.50978
0.50489
0.50978
0.51957
0.50978
0.50489
0.50978
0.51468
0.51468
0.51957
0.52544
0.51957
0.53033
0.50978
0.50489
0.53033
0.53523
0.51957
0.5
0.49022
0.48043
0.47456
0.5
0.47456
0.4501
0.44031
0.44521
0.4501
0.45988
0.46967
0.47456
0.48043
0.48532
0.47456
0.46967
0.5
0.46477
0.45499
0.47456
0.48532
0.5
0.51468
0.49511
0.44521
0.46477
0.54012
0.58513
0.54501
0.49022
0.44521
0.50978
0.57534
0.61057
0.61546
0.63014
0.63992
0.59491
0.5
0.43542
0.42466
0.44031
0.43542
0.42466
0.43542
0.43542
0.43542
0.44521
0.4501
0.42466
0.42955
0.42955
0.41977
0.4002
0.40509
0.3953
0.38943
0.37476
0.37965
0.38454
0.36497
0.34442
0.36008
0.36986
0.37476
0.37965
0.40998
0.44031
0.44521
0.46967
0.48532
0.49511
0.50978
0.5
0.51957
0.51468
0.51957
0.51957
0.51957
0.50978
0.52544
0.53523
0.51468
0.5
0.51957
0.5
0.50489
0.49511
0.5
0.49022
0.5
0.49022
0.5
0.51957
0.51468
0.50978
0.51957
0.52544
0.54012
0.51957
0.50489
0.49511
0.49022
0.48043
0.48532
0.49022
0.48532
0.47456
0.47456
0.45988
0.44521
0.46477
0.46477
0.47456
0.47456
0.47456
0.48043
0.49022
0.48532
0.47456
0.48043
0.48532
0.49511
0.50978
0.48532
0.46477
0.44521
0.50978
0.55479
0.58513
0.51468
0.45988
0.4501
0.55479
0.5998
0.58513
0.59491
0.64971
0.5998
0.50978
0.4501
0.42955
0.42955
0.4501
0.4501
0.44031
0.4501
0.46477
0.46967
0.41977
0.40509
0.41487
0.42955
0.42466
0.41977
0.40509
0.40509
0.3953
0.40998
0.36497
0.35519
0.35029
0.35029
0.36497
0.37476
0.36986
0.3953
0.41977
0.43542
0.45499
0.47456
0.47456
0.49022
0.5
0.50489
0.51468
0.51957
0.53033
0.53523
0.51957
0.51468
0.50978
0.51957
0.52544
0.50489
0.51468
0.51957
0.51957
0.50489
0.5
0.50978
0.5
0.49022
0.49511
0.5
0.50978
0.50489
0.51957
0.53523
0.54501
0.54012
0.55969
0.5
0.48043
0.49022
0.47456
0.48043
0.47456
0.48043
0.46967
0.46477
0.45499
0.46477
0.47456
0.47456
0.47456
0.46477
0.48043
0.47456
0.48532
0.49511
0.47456
0.48532
0.51468
0.47456
0.5
0.49022
0.49511
0.4501
0.49511
0.55969
0.5998
0.53523
0.45988
0.44031
0.5499
0.59002
0.6047
0.62524
0.62524
0.58513
0.49511
0.44521
0.46967
0.43542
0.42466
0.43542
0.44031
0.4501
0.46477
0.46967
0.44521
0.42955
0.42466
0.42955
0.42466
0.40998
0.40998
0.42955
0.3953
0.38454
0.3953
0.37476
0.36497
0.35519
0.36497
0.37476
0.38943
0.40509
0.41487
0.43542
0.4501
0.45499
0.49022
0.48043
0.47456
0.5
0.50978
0.5
0.53523
0.53033
0.52544
0.50489
0.51957
0.51468
0.51468
0.5
0.5
0.50489
0.5
0.5
0.5
0.50489
0.5
0.5
0.5
0.49022
0.50978
0.52544
0.53033
0.50978
0.51957
0.53033
0.54501
0.54501
0.54012
0.51468
0.48532
0.49022
0.46477
0.45988
0.46967
0.47456
0.45988
0.46967
0.47456
0.46477
0.45988
0.45499
0.47456
0.48043
0.47456
0.47456
0.48043
0.48532
0.50489
0.49511
0.48532
0.5
0.46967
0.43542
0.42955
0.52544
0.59002
0.59491
0.51957
0.44521
0.50489
0.55479
0.54501
0.55969
0.56458
0.55479
0.49511
0.4501
0.43542
0.42955
0.42955
0.4501
0.44521
0.45988
0.46477
0.44521
0.44521
0.42955
0.42466
0.43542
0.44521
0.44031
0.42466
0.41487
0.41977
0.42466
0.37476
0.37476
0.37965
0.36008
0.35519
0.36497
0.35519
0.36497
0.3953
0.40998
0.42466
0.4501
0.45988
0.49511
0.5
0.48532
0.51468
0.51468
0.51957
0.51957
0.52544
0.53033
0.54501
0.53523
0.51957
0.51957
0.51468
0.52544
0.50978
0.51957
0.51468
0.52544
0.51468
0.51957
0.51957
0.51957
0.5
0.50489
0.51957
0.51468
0.54012
0.5499
0.53523
0.51468
0.50489
0.50489
0.49022
0.48043
0.49511
0.48043
0.45499
0.4501
0.46477
0.47456
0.47456
0.46967
0.48043
0.48532
0.48532
0.47456
0.48043
0.48043
0.48532
0.48043
0.5
0.5
0.50489
0.51468
0.48043
0.44521
0.5
0.54501
0.5998
0.55969
0.50489
0.48043
0.55479
0.58023
0.5998
0.61546
0.62035
0.59002
0.52544
0.46477
0.43542
0.42955
0.42466
0.44031
0.4501
0.45499
0.47456
0.45499
0.41977
0.42466
0.42466
0.42955
0.41487
0.41487
0.43542
0.41487
0.4002
0.38454
0.37965
0.37965
0.38454
0.36986
0.35519
0.35029
0.35519
0.36497
0.38454
0.40509
0.4501
0.47456
0.46967
0.45988
0.49022
0.5
0.51468
0.53033
0.51468
0.52544
0.50489
0.51468
0.51957
0.50978
0.51957
0.54501
0.51468
0.49022
0.5
0.5
0.5
0.50978
0.50489
0.51957
0.49511
0.5
0.48043
0.5
0.5
0.51468
0.53523
0.53033
0.53523
0.54501
0.56458
0.57534
0.57045
0.59002
0.6047
0.61546
0.59002
0.68982
0.66047
0.63503
0.59491
0.59002
0.57045
0.54012
0.53033
0.50978
0.49022
0.42955
0.40509
0.38943
0.3953
0.3953
0.4002
0.38454
0.38454
0.38454
0.38454
0.37965
0.38454
0.37476
0.36497
0.33464
0.32485
0.32485
0.32485
0.29452
0.28963
0.30528
0.29941
0.31018
0.33953
0.34442
0.35519
0.38454
0.3953
0.42466
0.45499
0.49022
0.48532
0.49511
0.50978
0.50978
0.52544
0.51957
0.51957
0.54012
0.51957
0.49511
0.49022
0.46477
0.41487
0.42955
0.44031
0.36497
0.26517
0.1546
0.074364
0.04501
0.024462
0.034247
0.1047
0.18493
0.2593
0.36008
0.40509
0.46967
0.55479
0.63014
0.65558
0.66047
0.67025
0.65558
0.64971
0.63992
0.65558
0.67515
0.69472
0.71526
0.71037
0.71526
0.7407
0.76517
0.77984
0.81018
0.83072
0.86008
0.87573
0.85519
0.83562
0.82485
0.81507
0.80039
0.7955
0.72994
0.66536
0.6047
0.55969
0.52544
0.50489
0.5
0.48532
0.43542
0.41977
0.40998
0.41977
0.42466
0.40998
0.40998
0.41977
0.42466
0.43542
0.45988
0.44521
0.42466
0.41487
0.41977
0.44521
0.44521
0.43542
0.41977
0.42955
0.44031
0.44031
0.4501
0.44521
0.45499
0.45499
0.46477
0.47456
0.41487
0.4002
0.48532
0.54012
0.56458
0.50489
0.4501
0.43542
0.5499
0.58513
0.62524
0.64971
0.66047
0.54501
0.44521
0.4002
0.3953
0.40509
0.40998
0.3953
0.3953
0.38943
0.40509
0.37965
0.38943
0.4002
0.3953
0.37965
0.37965
0.35519
0.35519
0.37965
0.35519
0.33464
0.33464
0.33464
0.33953
0.35029
0.35519
0.38454
0.40509
0.40509
0.42466
0.44031
0.45499
0.46477
0.47456
0.46477
0.47456
0.47456
0.48532
0.49511
0.50489
0.47456
0.48532
0.49022
0.49511
0.46967
0.47456
0.48043
0.48532
0.48043
0.49022
0.50489
0.50978
0.48043
0.5
0.51957
0.54012
0.53033
0.51468
0.49511
0.5
0.47456
0.46967
0.47456
0.46967
0.4501
0.44031
0.46477
0.4501
0.44521
0.4501
0.46477
0.47456
0.45499
0.48532
0.49022
0.47456
0.4501
0.48043
0.49022
0.45499
0.46477
0.48532
0.5
0.48532
0.45499
0.44521
0.48532
0.54501
0.58513
0.53033
0.47456
0.42955
0.5
0.51957
0.50978
0.54501
0.55479
0.56458
0.44521
0.40998
0.38943
0.42466
0.42466
0.42466
0.41977
0.42955
0.43542
0.42466
0.42955
0.44031
0.42955
0.42466
0.41487
0.41977
0.40509
0.4002
0.38943
0.38454
0.37965
0.37476
0.36497
0.36986
0.36008
0.37476
0.38943
0.3953
0.40509
0.41487
0.44521
0.46477
0.45499
0.49511
0.49022
0.49511
0.50489
0.51957
0.51468
0.51957
0.51957
0.52544
0.51957
0.50489
0.51468
0.53523
0.51957
0.50489
0.48532
0.49022
0.49022
0.5
0.51468
0.50978
0.50489
0.51957
0.49511
0.5
0.50489
0.5
0.51957
0.51957
0.51957
0.5
0.48532
0.45499
0.45988
0.46967
0.46967
0.47456
0.46477
0.45499
0.44521
0.4501
0.46477
0.46477
0.47456
0.47456
0.48043
0.46967
0.49511
0.47456
0.47456
0.48043
0.5
0.49511
0.5
0.49022
0.46967
0.44521
0.50489
0.58023
0.62035
0.53033
0.45988
0.4501
0.57045
0.58513
0.62035
0.63992
0.66047
0.62524
0.53033
0.45988
0.44031
0.4501
0.42955
0.43542
0.41487
0.40998
0.42466
0.42955
0.42466
0.41977
0.42466
0.40998
0.41977
0.40998
0.4002
0.37965
0.37476
0.36986
0.37476
0.35519
0.35519
0.35519
0.36008
0.36497
0.37476
0.38943
0.42466
0.42466
0.44521
0.46967
0.49511
0.5
0.5
0.51957
0.51957
0.51957
0.51957
0.53523
0.50978
0.51468
0.51468
0.51957
0.51957
0.51957
0.50978
0.51957
0.50489
0.5
0.49511
0.5
0.5
0.49511
0.48532
0.5
0.49511
0.50489
0.51468
0.53523
0.54501
0.53523
0.54501
0.50978
0.49511
0.49022
0.47456
0.46967
0.47456
0.47456
0.46967
0.45499
0.45988
0.46477
0.47456
0.46967
0.45988
0.47456
0.48043
0.48532
0.49022
0.49022
0.48532
0.49022
0.5
0.49022
0.5
0.50489
0.47456
0.44521
0.48043
0.55479
0.5998
0.53523
0.47456
0.44521
0.52544
0.56458
0.59491
0.62524
0.63992
0.61057
0.53033
0.45988
0.43542
0.42466
0.42466
0.42466
0.42955
0.43542
0.44031
0.42955
0.42955
0.42955
0.42466
0.41977
0.41487
0.41487
0.40998
0.4002
0.38943
0.37476
0.36986
0.35519
0.36008
0.35519
0.36008
0.36986
0.37476
0.3953
0.41487
0.42955
0.44031
0.45988
0.48532
0.50489
0.5499
0.58023
0.6047
0.62524
0.59491
0.58023
0.61057
0.70548
0.7407
0.73483
0.7456
0.75538
0.70548
0.68493
0.62524
0.58513
0.50489
0.42955
0.4002
0.3953
0.38454
0.38454
0.38943
0.38454
0.3953
0.4002
0.40509
0.41487
0.40509
0.38943
0.36008
0.33953
0.32975
0.31018
0.31507
0.31018
0.30528
0.30528
0.31018
0.32975
0.34442
0.36986
0.38454
0.40998
0.43542
0.44521
0.45499
0.47456
0.48043
0.47456
0.48043
0.49511
0.5
0.49511
0.5
0.5
0.5
0.49511
0.5
0.5
0.50489
0.5
0.5
0.5
0.5
0.51957
0.50489
0.5
0.5
0.49511
0.5
0.49511
0.5
0.50489
0.49022
0.5
0.50489
0.5
0.49511
0.50978
0.51468
0.50489
0.5
0.5
0.50489
0.5
0.49022
0.5
0.5
0.5
0.5
0.5
0.49511
0.49022
0.5
0.5
0.50978
0.49511
0.49022
0.5
0.48532
0.48532
0.49022
0.5
0.49511
0.5
0.5
0.5
0.49511
0.5
0.5
0.49022
0.48043
0.49511
0.5
0.5
0.49022
0.49022
0.48532
0.49022
0.49022
0.49022
0.48532
0.49511
0.48532
0.48043
0.49511
0.5
0.51468
0.51468
0.51957
0.53523
0.53033
0.53523
0.50489
0.49511
0.48532
0.47456
0.48532
0.4501
0.45499
0.46477
0.4501
0.44521
0.45499
0.46477
0.46967
0.45499
0.4501
0.45988
0.47456
0.47456
0.47456
0.46477
0.46967
0.48043
0.46477
0.45499
0.42466
0.49022
0.54501
0.59002
0.5499
0.46477
0.43542
0.49511
0.54012
0.54501
0.5499
0.54012
0.56458
0.46967
0.41977
0.40998
0.42955
0.42466
0.42955
0.44031
0.42955
0.43542
0.44031
0.42955
0.43542
0.42955
0.44031
0.42466
0.41977
0.41487
0.41977
0.40509
0.4002
0.4002
0.38454
0.38943
0.36986
0.37476
0.37965
0.38454
0.4002
0.40998
0.42466
0.44031
0.4501
0.46967
0.47456
0.49022
0.5
0.51468
0.52544
0.51957
0.51468
0.51468
0.51468
0.51957
0.51957
0.51957
0.51468
0.51957
0.51957
0.51957
0.50978
0.51957
0.51957
0.50978
0.5
0.50489
0.50489
0.50978
0.51468
0.50978
0.51468
0.51957
0.53033
0.54012
0.54501
0.53523
0.50978
0.5
0.48532
0.47456
0.48043
0.47456
0.47456
0.47456
0.45499
0.45988
0.46477
0.45988
0.47456
0.47456
0.47456
0.48043
0.48532
0.48532
0.49022
0.49511
0.49022
0.49511
0.49511
0.51468
0.5
0.47456
0.4501
0.5
0.55969
0.6047
0.54012
0.49022
0.47456
0.57534
0.59491
0.61546
0.62035
0.64971
0.59491
0.50489
0.4501
0.42466
0.43542
0.44031
0.44521
0.44521
0.4501
0.44031
0.4501
0.4501
0.44521
0.43542
0.42955
0.42466
0.41977
0.40998
0.4002
0.3953
0.37965
0.37476
0.36986
0.36008
0.36008
0.36497
0.35519
0.37965
0.4002
0.41487
0.42955
0.46967
0.49511
0.53033
0.57045
0.5998
0.62035
0.59491
0.58023
0.62035
0.70548
0.75538
0.76517
0.77006
0.77984
0.71526
0.69472
0.63992
0.58023
0.50978
0.44031
0.40509
0.4002
0.3953
0.38943
0.38943
0.37965
0.38454
0.37965
0.37965
0.3953
0.38943
0.3953
0.37965
0.36497
0.33464
0.32485
0.31018
0.31018
0.31018
0.31996
0.32485
0.33464
0.33464
0.36008
0.37965
0.40509
0.42466
0.44031
0.4501
0.46967
0.48532
0.48532
0.49022
0.5
0.5
0.5
0.50489
0.5
0.50489
0.5
0.50489
0.50489
0.50978
0.50978
0.50489
0.5
0.50489
0.50978
0.50489
0.50489
0.5
0.50978
0.5
0.50978
0.5
0.50489
0.5
0.50978
0.50489
0.5
0.5
0.50978
0.5
0.5
0.5
0.5
0.50978
0.50489
0.50489
0.50978
0.5
0.5
0.50489
0.50978
0.50489
0.5
0.50978
0.5
0.5
0.5
0.50489
0.5
0.50489
0.5
0.5
0.5
0.5
0.5
0.5
0.49511
0.5
0.49511
0.5
0.49511
0.49511
0.49511
0.49511
0.49022
0.49511
0.49022
0.49511
0.48532
0.49022
0.48532
0.49022
0.49511
0.49511
0.49511
0.49511
0.5
0.50489
0.51957
0.51957
0.53523
0.52544
0.52544
0.50489
0.5
0.47456
0.46967
0.47456
0.46967
0.45988
0.45988
0.46477
0.4501
0.4501
0.45988
0.46477
0.47456
0.46967
0.46967
0.47456
0.46967
0.48043
0.48043
0.48043
0.48532
0.49511
0.48043
0.4501
0.42466
0.50978
0.58023
0.59491
0.50489
0.44521
0.48043
0.54012
0.5499
0.56458
0.57534
0.59002
0.52544
0.45499
0.42466
0.44031
0.42955
0.42466
0.44521
0.43542
0.44031
0.42955
0.43542
0.44031
0.42955
0.42955
0.42466
0.42466
0.41977
0.40998
0.40509
0.40509
0.38943
0.3953
0.37476
0.37965
0.37476
0.38454
0.37965
0.38943
0.40998
0.42466
0.43542
0.44031
0.46477
0.48043
0.49511
0.50489
0.50978
0.50489
0.51957
0.51957
0.51957
0.52544
0.51957
0.50978
0.51468
0.5
0.51468
0.50489
0.51468
0.5
0.5
0.5
0.5
0.5
0.5
0.49022
0.5
0.49022
0.5
0.49511
0.5
0.50978
0.51468
0.53523
0.53033
0.51957
0.51468
0.49511
0.48043
0.47456
0.46967
0.47456
0.45499
0.46477
0.4501
0.4501
0.46477
0.46967
0.46477
0.46967
0.47456
0.46967
0.48043
0.46967
0.48043
0.48043
0.47456
0.48532
0.49022
0.49511
0.47456
0.44521
0.43542
0.51957
0.58513
0.5998
0.50978
0.4501
0.47456
0.53033
0.54501
0.55969
0.56458
0.57045
0.49511
0.43542
0.41977
0.42955
0.44031
0.44521
0.44521
0.44031
0.44031
0.43542
0.44031
0.44521
0.43542
0.43542
0.42955
0.42466
0.41977
0.40998
0.40509
0.38943
0.37965
0.37965
0.36986
0.35519
0.36008
0.36008
0.35519
0.37476
0.38943
0.4002
0.41977
0.44031
0.46967
0.5
0.54012
0.58513
0.6047
0.63503
0.62035
0.58513
0.59491
0.66536
0.7407
0.76027
0.77984
0.79061
0.76517
0.75049
0.71526
0.64971
0.57045
0.49022
0.42466
0.4002
0.3953
0.4002
0.3953
0.3953
0.4002
0.40509
0.40998
0.40509
0.38454
0.35029
0.32975
0.31018
0.30528
0.29452
0.28474
0.27495
0.27006
0.27495
0.28474
0.30528
0.32975
0.35519
0.37965
0.40509
0.42466
0.4501
0.45988
0.47456
0.49511
0.50489
0.50978
0.51468
0.51957
0.51957
0.51957
0.52544
0.52544
0.51957
0.51468
0.51957
0.51957
0.51957
0.50978
0.50978
0.51468
0.51468
0.50978
0.50978
0.51468
0.50978
0.51468
0.50978
0.51468
0.51468
0.51957
0.50489
0.50978
0.50978
0.50978
0.50978
0.50489
0.5
0.50978
0.51468
0.50978
0.51468
0.50978
0.5
0.50489
0.5
0.50978
0.51468
0.50978
0.50489
0.50489
0.50978
0.50978
0.51468
0.50978
0.50489
0.5
0.50489
0.50978
0.50489
0.5
0.50978
0.50489
0.50489
0.5
0.5
0.50489
0.5
0.5
0.5
0.5
0.5
0.5
0.5
0.5
0.49022
0.49511
0.5
0.5
0.49022
0.5
0.50978
0.51468
0.51957
0.53523
0.54012
0.54501
0.51957
0.50489
0.49022
0.47456
0.46967
0.47456
0.46967
0.45988
0.4501
0.4501
0.45988
0.46477
0.47456
0.47456
0.47456
0.48043
0.46477
0.46967
0.48532
0.49022
0.49511
0.49022
0.5
0.47456
0.4501
0.42466
0.48532
0.57534
0.6047
0.50978
0.44521
0.46477
0.54012
0.55479
0.57045
0.58513
0.5998
0.5499
0.48532
0.43542
0.42955
0.42955
0.44031
0.42955
0.43542
0.44031
0.42955
0.42955
0.43542
0.44031
0.42955
0.42466
0.40998
0.41977
0.40998
0.40509
0.40509
0.3953
0.38943
0.37965
0.36986
0.36008
0.36986
0.37965
0.38454
0.4002
0.41487
0.43542
0.44521
0.45988
0.48043
0.48532
0.48532
0.5
0.51957
0.51468
0.51468
0.51957
0.52544
0.51957
0.51957
0.53033
0.51468
0.50978
0.50489
0.50489
0.5
0.49511
0.50489
0.51957
0.50489
0.48532
0.48532
0.49511
0.5
0.49022
0.5
0.51468
0.53033
0.53523
0.54012
0.50978
0.5
0.49511
0.47456
0.46967
0.48043
0.46477
0.45988
0.46477
0.46477
0.47456
0.47456
0.46967
0.46967
0.46967
0.47456
0.48043
0.48532
0.48532
0.48532
0.49022
0.49511
0.48532
0.50978
0.5
0.46967
0.4501
0.50978
0.58513
0.61057
0.53033
0.46967
0.45499
0.56458
0.58513
0.62035
0.63992
0.65558
0.58023
0.49022
0.4501
0.44031
0.42955
0.43542
0.44521
0.4501
0.44521
0.42955
0.43542
0.44031
0.44521
0.43542
0.42955
0.41977
0.41977
0.41487
0.40509
0.3953
0.37965
0.37965
0.37476
0.36986
0.36497
0.36008
0.37476
0.3953
0.40998
0.42466
0.43542
0.45499
0.46477
0.48043
0.49511
0.5
0.50489
0.50978
0.50978
0.51957
0.52544
0.53033
0.5499
0.58023
0.59002
0.59491
0.5998
0.58023
0.57534
0.68982
0.71037
0.68982
0.71037
0.71037
0.70059
0.66047
0.63014
0.59491
0.53033
0.46477
0.44521
0.44031
0.44521
0.42466
0.40509
0.3953
0.38454
0.37965
0.36986
0.35519
0.34442
0.33464
0.31996
0.31018
0.31018
0.29941
0.29941
0.30528
0.29941
0.31018
0.32485
0.34442
0.35519
0.38454
0.4002
0.41977
0.44031
0.45499
0.46967
0.48532
0.5
0.5
0.50489
0.5
0.50489
0.51468
0.51957
0.51468
0.50978
0.50489
0.50978
0.50978
0.50978
0.51468
0.50978
0.5
0.50978
0.50489
0.50978
0.50489
0.50978
0.50489
0.51468
0.50978
0.51468
0.50978
0.50489
0.50978
0.50489
0.51957
0.51957
0.51468
0.5
0.5
0.5
0.50489
0.5
0.50489
0.5
0.50489
0.5
0.5
0.5
0.5
0.5
0.5
0.5
0.5
0.49511
0.5
0.49511
0.49511
0.5
0.49022
0.48532
0.5
0.49511
0.49022
0.5
0.49511
0.49511
0.48532
0.49511
0.49511
0.49022
0.48532
0.49022
0.48532
0.50489
0.50978
0.50489
0.51468
0.53523
0.53523
0.53523
0.51957
0.50978
0.5
0.48043
0.46967
0.46967
0.46477
0.45499
0.4501
0.46477
0.45499
0.46477
0.45499
0.4501
0.46477
0.45988
0.46477
0.45988
0.48043
0.47456
0.48043
0.47456
0.48532
0.46477
0.44521
0.43542
0.49511
0.55479
0.58513
0.52544
0.45988
0.44031
0.51468
0.51957
0.51468
0.54012
0.54501
0.5
0.42466
0.3953
0.41487
0.42466
0.41977
0.42466
0.41977
0.42955
0.44031
0.43542
0.42466
0.42466
0.42955
0.42466
0.41487
0.40998
0.41487
0.4002
0.3953
0.3953
0.38454
0.38943
0.37476
0.37965
0.36986
0.37476
0.36986
0.38943
0.40509
0.40998
0.42955
0.44521
0.4501
0.46967
0.48532
0.48043
0.50489
0.5
0.5
0.50489
0.5
0.50978
0.50978
0.50489
0.50489
0.50489
0.5
0.5
0.50489
0.51468
0.5
0.5
0.5
0.5
0.49511
0.5
0.50978
0.50489
0.5
0.51468
0.53033
0.53033
0.52544
0.50489
0.48532
0.47456
0.46477
0.45988
0.46477
0.45988
0.46477
0.4501
0.45499
0.45499
0.45988
0.46477
0.46967
0.46477
0.46967
0.47456
0.47456
0.47456
0.48043
0.46967
0.46967
0.48043
0.5
0.49511
0.47456
0.44031
0.49022
0.55479
0.59002
0.53523
0.47456
0.45499
0.53033
0.57045
0.58023
0.58513
0.5998
0.57045
0.5
0.43542
0.42955
0.42955
0.42955
0.44521
0.44521
0.44521
0.43542
0.43542
0.42466
0.44031
0.43542
0.43542
0.41977
0.41977
0.40998
0.40509
0.40509
0.3953
0.37476
0.36497
0.35519
0.35519
0.36008
0.36497
0.37476
0.37965
0.3953
0.41487
0.43542
0.45499
0.46967
0.48532
0.5
0.50978
0.51957
0.51957
0.52544
0.53033
0.51957
0.51957
0.52544
0.54012
0.56458
0.59002
0.59491
0.61057
0.62035
0.5998
0.58513
0.67515
0.71037
0.70059
0.72016
0.72994
0.72505
0.70548
0.67515
0.63503
0.55969
0.48043
0.42466
0.4002
0.38454
0.37965
0.36497
0.36986
0.36008
0.35519
0.33953
0.32485
0.31996
0.31018
0.31018
0.30528
0.28963
0.27495
0.27984
0.26517
0.27006
0.27495
0.28474
0.30528
0.32975
0.35029
0.37476
0.3953
0.41977
0.44031
0.45499
0.47456
0.48532
0.5
0.50978
0.50978
0.50489
0.51957
0.51468
0.51468
0.51468
0.51957
0.5
0.50489
0.50489
0.50489
0.50978
0.50489
0.5
0.50489
0.5
0.5
0.5
0.50978
0.5
0.5
0.5
0.50489
0.51468
0.50489
0.50489
0.5
0.51468
0.51957
0.50978
0.50978
0.51468
0.52544
0.50978
0.50978
0.50978
0.50978
0.51468
0.50978
0.51468
0.50978
0.50489
0.5
0.51468
0.5
0.5
0.50978
0.51468
0.5
0.5
0.50978
0.51468
0.50978
0.5
0.49511
0.5
0.50489
0.50978
0.5
0.5
0.51468
0.5
0.50489
0.5
0.51468
0.51957
0.54501
0.54501
0.54012
0.53523
0.54012
0.51468
0.5
0.47456
0.46967
0.48043
0.47456
0.46477
0.46967
0.46477
0.46967
0.46477
0.46967
0.48043
0.47456
0.49022
0.48043
0.48532
0.47456
0.49022
0.49022
0.5
0.47456
0.48043
0.45988
0.44031
0.49022
0.57045
0.5998
0.50978
0.4501
0.44521
0.53523
0.5499
0.55479
0.56458
0.55969
0.50978
0.44521
0.40998
0.42466
0.42955
0.44521
0.4501
0.43542
0.4501
0.44521
0.43542
0.43542
0.44521
0.4501
0.42955
0.42466
0.42955
0.44031
0.40509
0.40509
0.40509
0.40509
0.38943
0.38454
0.38454
0.37965
0.37965
0.3953
0.40509
0.40998
0.42955
0.44521
0.46477
0.47456
0.5
0.5
0.50489
0.51957
0.51468
0.50978
0.51957
0.51957
0.51957
0.51957
0.51957
0.51957
0.51468
0.52544
0.51957
0.52544
0.51957
0.50978
0.50489
0.50978
0.50489
0.51468
0.50489
0.51468
0.51468
0.53033
0.53523
0.54501
0.54012
0.53033
0.50978
0.5
0.49511
0.48532
0.48532
0.49022
0.47456
0.46967
0.47456
0.48043
0.46967
0.47456
0.47456
0.47456
0.47456
0.48043
0.49022
0.49511
0.49022
0.49511
0.49022
0.49511
0.5
0.50489
0.49511
0.46477
0.4501
0.52544
0.59002
0.61057
0.53523
0.47456
0.46967
0.57534
0.59491
0.61546
0.61546
0.62524
0.57534
0.49022
0.4501
0.43542
0.44031
0.44031
0.4501
0.4501
0.44031
0.44031
0.44031
0.44521
0.42466
0.42466
0.42466
0.42466
0.40509
0.40509
0.40509
0.3953
0.37965
0.37476
0.36986
0.36008
0.35519
0.35519
0.35519
0.36497
0.37965
0.4002
0.42466
0.44031
0.46967
0.47456
0.48532
0.5
0.51468
0.52544
0.53523
0.54501
0.57534
0.59002
0.5998
0.61546
0.6047
0.58023
0.62524
0.69472
0.71037
0.72016
0.73483
0.7407
0.72505
0.68004
0.63992
0.58023
0.49022
0.4501
0.42466
0.42955
0.44031
0.4501
0.42955
0.41977
0.4002
0.38943
0.37965
0.35519
0.35029
0.33464
0.31507
0.29941
0.28474
0.28474
0.27984
0.27495
0.28474
0.29941
0.31507
0.32975
0.35029
0.36986
0.4002
0.40998
0.42955
0.4501
0.47456
0.48043
0.49022
0.50489
0.51468
0.51468
0.51957
0.51468
0.50978
0.51957
0.51468
0.50489
0.5
0.50489
0.51957
0.50978
0.5
0.5
0.5
0.5
0.50978
0.50489
0.5
0.5
0.49511
0.5
0.5
0.50489
0.5
0.5
0.50489
0.5
0.50489
0.5
0.5
0.5
0.5
0.5
0.5
0.5
0.5
0.5
0.5
0.5
0.50489
0.5
0.5
0.49511
0.5
0.5
0.5
0.5
0.50489
0.5
0.5
0.49511
0.49022
0.5
0.5
0.49511
0.49022
0.49511
0.5
0.49022
0.49511
0.5
0.49511
0.49511
0.49022
0.48532
0.49022
0.5
0.5
0.5
0.50489
0.51957
0.53523
0.54501
0.53523
0.51957
0.5
0.48043
0.47456
0.47456
0.46967
0.46477
0.45988
0.45499
0.45988
0.45499
0.46477
0.46477
0.46967
0.47456
0.47456
0.47456
0.47456
0.47456
0.47456
0.47456
0.49511
0.49022
0.47456
0.44031
0.42466
0.50489
0.58023
0.59491
0.49511
0.44031
0.48532
0.54501
0.55969
0.57045
0.58023
0.61057
0.57045
0.49022
0.44031
0.43542
0.42466
0.42466
0.42955
0.42955
0.42955
0.42466
0.42955
0.43542
0.42466
0.42466
0.42466
0.41487
0.40509
0.40509
0.38943
0.38454
0.38454
0.37476
0.36497
0.36497
0.36008
0.35519
0.36497
0.36986
0.38454
0.3953
0.42466
0.43542
0.45499
0.46967
0.48532
0.5
0.50489
0.51468
0.51957
0.51957
0.53033
0.52544
0.51957
0.51468
0.51957
0.51957
0.51957
0.50978
0.50489
0.51957
0.50978
0.50978
0.50489
0.5
0.5
0.5
0.49022
0.49511
0.49022
0.5
0.50489
0.51957
0.53033
0.53033
0.51468
0.5
0.49022
0.48043
0.47456
0.47456
0.46477
0.46477
0.45988
0.45499
0.46967
0.45499
0.45988
0.47456
0.46967
0.46477
0.48532
0.48043
0.48043
0.48043
0.49022
0.48532
0.49022
0.5
0.50489
0.48532
0.45988
0.4501
0.52544
0.6047
0.61057
0.51957
0.46967
0.52544
0.58023
0.59491
0.62035
0.63992
0.62035
0.5499
0.45988
0.44031
0.43542
0.44031
0.43542
0.44031
0.44521
0.42955
0.42955
0.43542
0.42955
0.44031
0.42955
0.42466
0.40998
0.41487
0.40509
0.38943
0.38454
0.37476
0.37476
0.36008
0.36008
0.35519
0.36497
0.37476
0.38943
0.40998
0.41487
0.43542
0.46477
0.45988
0.48532
0.48532
0.50489
0.51468
0.53523
0.53033
0.55479
0.57534
0.58023
0.6047
0.59491
0.57045
0.5998
0.68004
0.68982
0.68493
0.72016
0.71037
0.70059
0.66047
0.62035
0.57534
0.50978
0.45988
0.43542
0.42955
0.42466
0.44031
0.4501
0.42466
0.40998
0.3953
0.38454
0.36986
0.35519
0.35519
0.33953
0.32485
0.30528
0.29941
0.28963
0.28474
0.29452
0.31018
0.32485
0.33464
0.35519
0.36497
0.3953
0.41977
0.43542
0.44031
0.45988
0.46967
0.48043
0.49511
0.5
0.5
0.5
0.5
0.5
0.5
0.50489
0.50489
0.5
0.50489
0.5
0.5
0.5
0.5
0.5
0.5
0.5
0.49511
0.49511
0.5
0.5
0.5
0.5
0.50489
0.50489
0.50489
0.5
0.50489
0.5
0.5
0.5
0.49511
0.5
0.5
0.5
0.5
0.5
0.5
0.5
0.50489
0.5
0.5
0.49511
0.49511
0.49511
0.48043
0.48532
0.49022
0.49511
0.49511
0.49511
0.5
0.49511
0.49511
0.5
0.49511
0.49022
0.49022
0.48532
0.48532
0.48532
0.49022
0.48532
0.49511
0.49022
0.49022
0.49022
0.48043
0.47456
0.48532
0.48532
0.49511
0.5
0.51957
0.53033
0.53523
0.51957
0.50489
0.49511
0.48532
0.47456
0.46967
0.46477
0.4501
0.4501
0.4501
0.4501
0.45499
0.45988
0.45499
0.46477
0.46477
0.47456
0.46477
0.46477
0.46477
0.47456
0.47456
0.47456
0.48532
0.47456
0.43542
0.41487
0.48043
0.55479
0.58023
0.50489
0.4501
0.44521
0.54012
0.54501
0.55479
0.56458
0.57534
0.53033
0.45988
0.42466
0.42466
0.41977
0.43542
0.43542
0.42955
0.42466
0.44031
0.42955
0.42955
0.42466
0.41977
0.40998
0.40998
0.40998
0.40509
0.40998
0.3953
0.37965
0.37476
0.36986
0.36986
0.36497
0.36497
0.36986
0.37965
0.38943
0.40509
0.41977
0.43542
0.4501
0.46477
0.48532
0.5
0.5
0.50489
0.51468
0.51468
0.50978
0.51957
0.50978
0.51468
0.50978
0.50978
0.50978
0.5
0.5
0.50978
0.5
0.5
0.5
0.49511
0.48043
0.49511
0.49022
0.5
0.49022
0.5
0.5
0.50489
0.50978
0.52544
0.54012
0.53033
0.50978
0.5
0.48043
0.47456
0.47456
0.46967
0.47456
0.46477
0.46967
0.45988
0.4501
0.45988
0.45499
0.47456
0.46967
0.46967
0.47456
0.48043
0.47456
0.48043
0.47456
0.48043
0.49022
0.49511
0.46967
0.4501
0.44521
0.51957
0.58513
0.59491
0.50489
0.45988
0.49511
0.54012
0.54501
0.55479
0.54501
0.55479
0.46477
0.40998
0.3953
0.42466
0.42466
0.42955
0.44031
0.43542
0.44521
0.44031
0.43542
0.44031
0.43542
0.43542
0.42466
0.42466
0.41487
0.41977
0.40509
0.4002
0.38943
0.37965
0.36986
0.36008
0.36497
0.35519
0.36986
0.37965
0.38943
0.40998
0.42466
0.44031
0.46967
0.47456
0.46967
0.48043
0.51468
0.51957
0.51468
0.57045
0.57534
0.59002
0.58513
0.57534
0.59491
0.68982
0.72016
0.71037
0.71526
0.71037
0.68004
0.66536
0.62035
0.57045
0.5
0.44521
0.41977
0.41487
0.41487
0.42466
0.42955
0.43542
0.41977
0.4002
0.37965
0.36986
0.35029
0.35519
0.32975
0.31018
0.29452
0.28474
0.27984
0.27984
0.28474
0.28474
0.30528
0.31507
0.33464
0.36008
0.37965
0.40509
0.42466
0.4501
0.45499
0.47456
0.5
0.5
0.50489
0.50489
0.50489
0.51957
0.51468
0.51468
0.51957
0.51468
0.50978
0.50978
0.50978
0.50489
0.50489
0.51468
0.50978
0.51468
0.50978
0.5
0.5
0.50489
0.50489
0.50978
0.50489
0.50978
0.50489
0.50489
0.50489
0.50489
0.50978
0.5
0.50978
0.50978
0.50489
0.5
0.50489
0.5
0.51468
0.5
0.50489
0.5
0.5
0.5
0.5
0.5
0.5
0.50489
0.5
0.5
0.5
0.49511
0.49511
0.5
0.5
0.5
0.5
0.5
0.5
0.5
0.49511
0.5
0.49511
0.5
0.49511
0.49511
0.49022
0.49022
0.49022
0.49511
0.5
0.49511
0.50489
0.50489
0.50489
0.51468
0.52544
0.54012
0.53523
0.53033
0.51468
0.5
0.48532
0.47456
0.47456
0.47456
0.46967
0.46477
0.45988
0.45988
0.46477
0.46477
0.46477
0.46477
0.46967
0.46967
0.47456
0.47456
0.47456
0.47456
0.47456
0.48532
0.49022
0.46967
0.42955
0.42466
0.52544
0.59002
0.5499
0.48532
0.44031
0.50489
0.5499
0.55969
0.57045
0.57534
0.59002
0.53033
0.4501
0.42466
0.42955
0.42466
0.43542
0.42955
0.42955
0.42955
0.42955
0.42955
0.42955
0.42955
0.41977
0.41487
0.41487
0.40509
0.4002
0.4002
0.38454
0.37965
0.36986
0.36497
0.35519
0.35519
0.35519
0.36497
0.37965
0.38943
0.40509
0.41977
0.44521
0.45499
0.47456
0.48532
0.5
0.50489
0.51468
0.51468
0.51957
0.51957
0.51957
0.52544
0.51468
0.51468
0.50489
0.50978
0.51957
0.51468
0.50978
0.5
0.5
0.5
0.49511
0.49022
0.49511
0.49511
0.49022
0.49511
0.5
0.5
0.50489
0.51468
0.51957
0.52544
0.51957
0.50978
0.49511
0.48043
0.47456
0.46967
0.47456
0.46477
0.45499
0.45988
0.45988
0.45499
0.46477
0.46477
0.46967
0.46967
0.47456
0.47456
0.47456
0.48043
0.48532
0.48043
0.48043
0.49022
0.5
0.49511
0.45499
0.44031
0.50489
0.58023
0.5998
0.52544
0.45988
0.49022
0.56458
0.59002
0.61546
0.63014
0.63992
0.56458
0.48043
0.44521
0.42955
0.42466
0.43542
0.43542
0.44031
0.44521
0.44031
0.44031
0.44031
0.43542
0.42955
0.42955
0.42466
0.41977
0.40998
0.4002
0.3953
0.38454
0.37476
0.36497
0.35519
0.36008
0.36497
0.37476
0.38943
0.4002
0.41977
0.4501
0.47456
0.50978
0.5499
0.58023
0.61546
0.59491
0.58023
0.61546
0.68493
0.75049
0.76027
0.75538
0.77984
0.72994
0.70059
0.64971
0.6047
0.53523
0.45988
0.40998
0.3953
0.3953
0.38454
0.38454
0.37965
0.38454
0.38454
0.37965
0.37965
0.38454
0.3953
0.4002
0.38943
0.37476
0.35029
0.33464
0.32975
0.31996
0.32485
0.33464
0.34442
0.35029
0.36497
0.37476
0.3953
0.40998
0.43542
0.4501
0.46477
0.47456
0.48532
0.49022
0.5
0.50489
0.5
0.51468
0.51468
0.50978
0.51468
0.51468
0.51468
0.50978
0.51468
0.51468
0.51957
0.51957
0.50978
0.51468
0.51957
0.51957
0.51957
0.51468
0.51468
0.51468
0.50489
0.51468
0.51957
0.51957
0.51468
0.51468
0.51468
0.50978
0.51468
0.51957
0.51468
0.50978
0.51468
0.50978
0.51468
0.51468
0.51957
0.5
0.50489
0.50978
0.50489
0.51468
0.51957
0.50489
0.50978
0.51468
0.50489
0.5
0.50978
0.5
0.50489
0.50489
0.5
0.5
0.5
0.50489
0.5
0.50489
0.5
0.50489
0.50978
0.49511
0.5
0.5
0.5
0.49511
0.49511
0.5
0.49022
0.5
0.5
0.5
0.49022
0.5
0.49022
0.49022
0.5
0.50978
0.5
0.50489
0.52544
0.54012
0.54501
0.53523
0.52544
0.50978
0.49022
0.47456
0.48532
0.46477
0.45988
0.45499
0.46967
0.46477
0.45988
0.46477
0.45499
0.46477
0.46967
0.47456
0.46967
0.46477
0.47456
0.47456
0.47456
0.49022
0.47456
0.45988
0.42466
0.4501
0.51468
0.59002
0.55969
0.49022
0.44031
0.5
0.53523
0.54012
0.54012
0.54012
0.5499
0.48043
0.40998
0.40509
0.41977
0.42466
0.42955
0.44521
0.44031
0.44031
0.42466
0.43542
0.43542
0.42955
0.42466
0.41977
0.41977
0.41977
0.41977
0.40509
0.4002
0.3953
0.37965
0.3953
0.38454
0.37965
0.38454
0.38454
0.38454
0.3953
0.41487
0.42466
0.44521
0.45499
0.47456
0.48532
0.5
0.5
0.50489
0.50978
0.51468
0.50489
0.50978
0.51957
0.51468
0.50978
0.50489
0.51957
0.50489
0.50978
0.51468
0.50978
0.50489
0.5
0.50489
0.5
0.5
0.5
0.5
0.51468
0.50978
0.50978
0.51957
0.53523
0.54501
0.53523
0.51468
0.50978
0.49022
0.47456
0.47456
0.47456
0.46967
0.46477
0.45988
0.45499
0.45499
0.45988
0.46477
0.47456
0.47456
0.47456
0.47456
0.47456
0.48043
0.48532
0.48043
0.48043
0.48043
0.5
0.49022
0.46967
0.44521
0.49022
0.5499
0.59002
0.54012
0.48043
0.45988
0.54501
0.58023
0.59002
0.6047
0.62035
0.58513
0.51468
0.44521
0.43542
0.42955
0.43542
0.43542
0.43542
0.44031
0.43542
0.42955
0.42955
0.42955
0.42466
0.42466
0.41487
0.40509
0.40509
0.3953
0.38454
0.37965
0.36008
0.35519
0.34442
0.34442
0.35029
0.34442
0.35519
0.36986
0.38454
0.40998
0.42466
0.44521
0.46477
0.48043
0.5
0.50489
0.51957
0.51957
0.52544
0.51957
0.52544
0.51957
0.51957
0.51957
0.51957
0.51957
0.51468
0.51468
0.50978
0.50978
0.50978
0.50489
0.50489
0.5
0.5
0.49511
0.5
0.5
0.50489
0.50978
0.51957
0.53033
0.53523
0.54012
0.50978
0.5
0.49022
0.48532
0.48043
0.47456
0.47456
0.46477
0.46477
0.46477
0.46477
0.46477
0.46477
0.46967
0.47456
0.47456
0.48043
0.48043
0.48532
0.48043
0.48532
0.49022
0.5
0.5
0.49511
0.45988
0.44521
0.50978
0.58023
0.6047
0.53523
0.46477
0.4501
0.54501
0.57534
0.59491
0.61546
0.63014
0.58023
0.49511
0.44521
0.43542
0.43542
0.42955
0.44031
0.4501
0.44031
0.44521
0.43542
0.44031
0.42955
0.43542
0.42466
0.41977
0.42466
0.40509
0.4002
0.3953
0.37965
0.37476
0.36497
0.36008
0.35519
0.35519
0.36008
0.36986
0.37965
0.40509
0.42466
0.44031
0.45988
0.47456
0.49022
0.50489
0.51957
0.51957
0.51957
0.51468
0.52544
0.51957
0.52544
0.51957
0.51957
0.51468
0.51957
0.51957
0.51468
0.50489
0.50978
0.50489
0.5
0.50489
0.50978
0.5
0.5
0.50978
0.50489
0.50978
0.51468
0.52544
0.54501
0.54501
0.53523
0.51957
0.50978
0.49511
0.48043
0.48532
0.47456
0.47456
0.46477
0.46477
0.46967
0.46477
0.47456
0.47456
0.47456
0.48043
0.48043
0.49022
0.49511
0.49022
0.49511
0.49022
0.49022
0.5
0.50978
0.49511
0.46477
0.4501
0.50489
0.57534
0.6047
0.53523
0.46477
0.4501
0.5499
0.57534
0.5998
0.61057
0.63992
0.58513
0.48532
0.44521
0.43542
0.42955
0.44521
0.4501
0.44521
0.44521
0.44521
0.43542
0.43542
0.42955
0.42955
0.42955
0.42955
0.42466
0.40998
0.40509
0.4002
0.38454
0.37476
0.36986
0.36008
0.35519
0.35519
0.36497
0.37476
0.3953
0.41487
0.41977
0.44031
0.4501
0.48043
0.49511
0.50489
0.51957
0.51957
0.51468
0.51957
0.52544
0.51957
0.52544
0.51957
0.51957
0.51957
0.51468
0.51468
0.50978
0.51468
0.5
0.50978
0.50978
0.50489
0.50489
0.5
0.5
0.50489
0.5
0.50489
0.51957
0.51957
0.53523
0.54012
0.53033
0.51957
0.51468
0.49511
0.48043
0.47456
0.47456
0.47456
0.46967
0.46477
0.46477
0.46967
0.46967
0.47456
0.47456
0.47456
0.48043
0.48043
0.48532
0.49022
0.49022
0.49511
0.49022
0.5
0.50489
0.50489
0.48043
0.4501
0.50489
0.56458
0.58513
0.53033
0.48043
0.46477
0.55479
0.58023
0.58513
0.59491
0.61057
0.5499
0.45988
0.42466
0.44031
0.43542
0.4501
0.45499
0.45988
0.4501
0.4501
0.44521
0.44521
0.4501
0.4501
0.44031
0.42955
0.42466
0.42466
0.40998
0.40509
0.3953
0.3953
0.38943
0.38454
0.37476
0.37965
0.37476
0.38943
0.40509
0.41487
0.43542
0.4501
0.47456
0.48043
0.5
0.50978
0.51957
0.52544
0.52544
0.51957
0.52544
0.51957
0.53033
0.53523
0.51957
0.51957
0.51957
0.51957
0.51957
0.51468
0.50978
0.50978
0.50978
0.50489
0.5
0.51468
0.50489
0.51957
0.50489
0.5
0.51957
0.53523
0.54012
0.54501
0.52544
0.51957
0.50489
0.48043
0.47456
0.47456
0.47456
0.46477
0.45988
0.46967
0.47456
0.46477
0.47456
0.48043
0.47456
0.48043
0.49511
0.48043
0.48532
0.48043
0.49022
0.48043
0.49511
0.49022
0.50489
0.46477
0.44031
0.49022
0.55479
0.5998
0.5499
0.49022
0.46477
0.51468
0.54012
0.5499
0.55969
0.57045
0.53523
0.46967
0.41977
0.42955
0.44031
0.43542
0.42466
0.4501
0.4501
0.44521
0.44031
0.44521
0.42955
0.43542
0.42466
0.41977
0.43542
0.41487
0.40998
0.4002
0.40509
0.38943
0.37476
0.37476
0.37965
0.36497
0.36986
0.37476
0.37965
0.4002
0.40998
0.42466
0.4501
0.46477
0.47456
0.48043
0.5
0.50978
0.5
0.50978
0.51468
0.50978
0.51468
0.51468
0.51957
0.51468
0.50978
0.51468
0.50978
0.51957
0.51957
0.50489
0.5
0.50489
0.50489
0.5
0.50978
0.50489
0.51468
0.51957
0.51957
0.53523
0.54012
0.53033
0.5
0.5
0.48043
0.47456
0.47456
0.46967
0.46967
0.45988
0.45499
0.45988
0.46477
0.47456
0.48043
0.46477
0.46477
0.46967
0.47456
0.47456
0.48043
0.48043
0.48043
0.48043
0.49022
0.5
0.49511
0.46967
0.4501
0.50489
0.55969
0.58513
0.51468
0.4501
0.44031
0.5499
0.57045
0.59002
0.6047
0.61546
0.58513
0.50978
0.4501
0.44031
0.43542
0.42466
0.42466
0.43542
0.42955
0.43542
0.42466
0.42466
0.42466
0.42955
0.41977
0.41487
0.40998
0.40509
0.4002
0.38454
0.37476
0.36497
0.35519
0.35029
0.34442
0.33953
0.34442
0.35519
0.36986
0.38943
0.40509
0.42955
0.4501
0.46477
0.48532
0.5
0.50978
0.51468
0.51957
0.51957
0.53033
0.52544
0.52544
0.51957
0.51957
0.51468
0.51468
0.51957
0.51957
0.51468
0.51468
0.51468
0.50978
0.50489
0.5
0.50489
0.50489
0.50978
0.51468
0.51957
0.51957
0.54012
0.53523
0.52544
0.51468
0.5
0.48532
0.48043
0.46967
0.47456
0.46967
0.46967
0.45499
0.45499
0.45988
0.45988
0.47456
0.48043
0.47456
0.47456
0.48532
0.48532
0.48532
0.48043
0.48532
0.48532
0.5
0.5
0.49022
0.47456
0.44521
0.48532
0.55479
0.6047
0.54501
0.48043
0.44521
0.53033
0.56458
0.59002
0.6047
0.63503
0.59002
0.5
0.44031
0.43542
0.42466
0.42955
0.42955
0.43542
0.42955
0.42955
0.43542
0.42955
0.42955
0.42955
0.42466
0.41977
0.40998
0.40509
0.3953
0.38943
0.37476
0.36986
0.36008
0.35519
0.35519
0.35519
0.36008
0.36497
0.37965
0.4002
0.41977
0.44031
0.46477
0.47456
0.49511
0.5
0.50978
0.51957
0.51957
0.51957
0.51468
0.51957
0.51957
0.51468
0.51468
0.50978
0.51468
0.51468
0.51957
0.50489
0.50489
0.5
0.5
0.5
0.5
0.50489
0.5
0.50489
0.50489
0.50978
0.51957
0.53033
0.54012
0.55969
0.54012
0.51468
0.5
0.5
0.49022
0.49022
0.47456
0.46967
0.46477
0.46967
0.47456
0.47456
0.47456
0.47456
0.48043
0.47456
0.49022
0.48532
0.48043
0.5
0.49511
0.5
0.49511
0.50489
0.51468
0.49022
0.46967
0.44521
0.49511
0.55969
0.59491
0.51468
0.45499
0.4501
0.54012
0.54501
0.57045
0.59002
0.6047
0.55479
0.45499
0.41977
0.42955
0.43542
0.45499
0.43542
0.42955
0.45988
0.4501
0.4501
0.44031
0.43542
0.44521
0.43542
0.45499
0.41977
0.42955
0.40998
0.38454
0.38943
0.36497
0.36986
0.37965
0.35519
0.35029
0.36008
0.37965
0.4002
0.41487
0.46967
0.42955
0.4501
0.48532
0.48532
0.49511
0.51957
0.53523
0.52544
0.51957
0.53523
0.54501
0.5
0.5
0.51957
0.53033
0.5
0.51957
0.49511
0.49022
0.5
0.5
0.51468
0.50978
0.52544
0.49511
0.50489
0.5
0.49511
0.51957
0.50978
0.53523
0.53033
0.54501
0.51468
0.50489
0.51468
0.48043
0.49511
0.48043
0.48532
0.45988
0.45988
0.47456
0.48532
0.49511
0.45499
0.47456
0.48043
0.47456
0.48532
0.48532
0.50489
0.51957
0.48043
0.48043
0.48043
0.5
0.50978
0.49511
0.46477
0.49511
0.56458
0.63014
0.56458
0.5
0.46967
0.53523
0.58023
0.61546
0.63992
0.63503
0.61546
0.54012
0.46967
0.45499
0.44031
0.44521
0.45499
0.44521
0.44031
0.44521
0.4501
0.45499
0.4501
0.42955
0.42466
0.43542
0.40998
0.40509
0.40509
0.3953
0.38454
0.37965
0.37476
0.35519
0.35519
0.35519
0.36986
0.36008
0.35519
0.38454
0.41487
0.43542
0.45499
0.47456
0.49511
0.50978
0.51468
0.53033
0.53523
0.54012
0.54012
0.53523
0.51957
0.52544
0.53033
0.51957
0.52544
0.51957
0.51957
0.52544
0.51957
0.50978
0.50489
0.5
0.5
0.50978
0.51957
0.50489
0.49022
0.50489
0.51468
0.53033
0.54501
0.52544
0.50489
0.49022
0.49022
0.48532
0.48532
0.49022
0.47456
0.46967
0.45988
0.46477
0.45988
0.47456
0.47456
0.48532
0.49022
0.5
0.48532
0.5
0.49022
0.48532
0.49511
0.5
0.50978
0.5
0.48532
0.46477
0.4501
0.53033
0.62035
0.63503
0.50489
0.44031
0.48532
0.55479
0.59002
0.62035
0.61546
0.64481
0.56458
0.48532
0.45988
0.45499
0.43542
0.42466
0.42955
0.44521
0.44521
0.44031
0.4501
0.44031
0.43542
0.42955
0.43542
0.41977
0.40509
0.40509
0.40509
0.37965
0.37476
0.37965
0.35519
0.36986
0.35519
0.35519
0.36986
0.37965
0.3953
0.41977
0.43542
0.48043
0.53523
0.56458
0.61057
0.61546
0.58513
0.59491
0.67025
0.7456
0.76517
0.75538
0.77984
0.7407
0.71526
0.66047
0.62035
0.54012
0.45988
0.40509
0.4002
0.40509
0.40998
0.37476
0.38454
0.36497
0.37965
0.37965
0.37476
0.36008
0.37965
0.38454
0.3953
0.37476
0.36497
0.33464
0.33464
0.32485
0.32975
0.35029
0.35029
0.33464
0.35029
0.36497
0.3953
0.40998
0.40509
0.44521
0.45988
0.46477
0.46967
0.46477
0.48043
0.49511
0.49511
0.5
0.50978
0.49511
0.49022
0.5
0.50978
0.5
0.5
0.5
0.5
0.48532
0.5
0.50489
0.50978
0.49511
0.49022
0.50489
0.49511
0.49022
0.50489
0.50978
0.5
0.5
0.5
0.48043
0.49511
0.5
0.49022
0.50978
0.50489
0.5
0.5
0.49511
0.50978
0.5
0.48532
0.49511
0.49022
0.5
0.50489
0.50489
0.5
0.49022
0.48532
0.50489
0.49511
0.49022
0.49511
0.51957
0.51468
0.49511
0.48043
0.47456
0.48532
0.49022
0.5
0.5
0.49511
0.5
0.5
0.50489
0.51468
0.5
0.47456
0.46967
0.47456
0.48043
0.48043
0.48532
0.49511
0.50489
0.49511
0.49022
0.5
0.48043
0.50489
0.51468
0.50978
0.50978
0.51957
0.53033
0.53033
0.52544
0.49511
0.48043
0.48532
0.49022
0.46967
0.45499
0.45499
0.4501
0.46477
0.47456
0.45988
0.45499
0.45988
0.46477
0.47456
0.49022
0.49022
0.48043
0.46477
0.47456
0.49022
0.5
0.46967
0.4501
0.42466
0.49022
0.55479
0.58513
0.50978
0.45499
0.44521
0.51957
0.55969
0.56458
0.54501
0.56458
0.49022
0.42466
0.40509
0.42466
0.42466
0.43542
0.44031
0.42466
0.44031
0.42955
0.4501
0.42466
0.42466
0.41977
0.41487
0.42466
0.41977
0.40998
0.40509
0.40998
0.38454
0.36497
0.36008
0.36986
0.37476
0.37476
0.36497
0.37965
0.4002
0.42466
0.42466
0.4501
0.44521
0.45499
0.47456
0.50978
0.50489
0.5
0.5
0.51957
0.51957
0.51957
0.50978
0.53033
0.5
0.50489
0.50489
0.50978
0.51957
0.52544
0.50489
0.5
0.49022
0.49022
0.5
0.49511
0.48532
0.49511
0.5
0.50489
0.5
0.50978
0.53523
0.53523
0.52544
0.53523
0.51957
0.51468
0.48043
0.48043
0.47456
0.48043
0.47456
0.46477
0.45988
0.46477
0.45499
0.46477
0.47456
0.47456
0.46967
0.47456
0.48532
0.47456
0.47456
0.47456
0.48532
0.47456
0.48532
0.50489
0.48532
0.46967
0.44521
0.50489
0.56458
0.5998
0.53523
0.47456
0.46477
0.53033
0.56458
0.55969
0.57045
0.5499
0.5
0.44031
0.41977
0.42466
0.42955
0.42466
0.4501
0.4501
0.45988
0.4501
0.44031
0.4501
0.44031
0.44521
0.42466
0.44521
0.4501
0.45499
0.40509
0.4002
0.3953
0.38454
0.37965
0.37965
0.38454
0.37965
0.37965
0.38943
0.38943
0.40509
0.41977
0.43542
0.4501
0.48043
0.50489
0.50978
0.5
0.50489
0.51468
0.51957
0.54012
0.53033
0.51957
0.51957
0.52544
0.53033
0.51468
0.50978
0.51957
0.51957
0.51468
0.51957
0.51957
0.52544
0.50978
0.5
0.50489
0.51468
0.50489
0.51957
0.53033
0.54012
0.53523
0.53033
0.51957
0.50978
0.48532
0.47456
0.48043
0.46477
0.45988
0.46967
0.4501
0.4501
0.45988
0.46477
0.46967
0.48043
0.49022
0.47456
0.46967
0.46967
0.47456
0.48043
0.5
0.49511
0.48043
0.49511
0.5
0.46967
0.42955
0.5
0.57045
0.59002
0.52544
0.45988
0.44521
0.55969
0.57045
0.59002
0.6047
0.63503
0.5998
0.50489
0.44521
0.4501
0.44521
0.41977
0.42466
0.42466
0.43542
0.43542
0.42955
0.42955
0.4501
0.45499
0.40509
0.40998
0.41487
0.40509
0.4002
0.37965
0.36497
0.36008
0.36986
0.37965
0.32975
0.33464
0.35519
0.36497
0.37965
0.37965
0.40509
0.42466
0.45499
0.47456
0.47456
0.5
0.51957
0.53523
0.54501
0.51468
0.51957
0.54012
0.53033
0.53033
0.53033
0.53033
0.54501
0.53033
0.51468
0.50978
0.51468
0.51957
0.52544
0.51468
0.5
0.5
0.51957
0.51468
0.51957
0.51468
0.52544
0.53523
0.54501
0.53033
0.5
0.49511
0.48532
0.48043
0.49511
0.46967
0.46477
0.46967
0.46477
0.45988
0.46967
0.47456
0.45988
0.49022
0.48532
0.49022
0.47456
0.48043
0.49022
0.49511
0.49022
0.49511
0.5
0.50978
0.5
0.48043
0.46477
0.5
0.56458
0.5998
0.54501
0.46477
0.4501
0.5499
0.58513
0.61057
0.62035
0.63014
0.57534
0.48532
0.44031
0.4501
0.43542
0.44031
0.4501
0.44031
0.4501
0.44521
0.44521
0.42466
0.42466
0.43542
0.42466
0.44031
0.41977
0.40509
0.3953
0.38454
0.37965
0.37476
0.35519
0.35519
0.36008
0.36497
0.36497
0.37965
0.4002
0.41487
0.42466
0.43542
0.45988
0.47456
0.5
0.51957
0.50489
0.5
0.51468
0.53523
0.54501
0.5
0.50489
0.50489
0.51957
0.52544
0.51468
0.51957
0.50978
0.52544
0.51957
0.49511
0.49022
0.49511
0.5
0.5
0.49022
0.5
0.50489
0.51957
0.53523
0.53033
0.54501
0.53523
0.52544
0.51468
0.50489
0.5
0.48043
0.48043
0.47456
0.49022
0.48043
0.46477
0.45499
0.47456
0.47456
0.46477
0.47456
0.48043
0.48532
0.48043
0.48532
0.49022
0.48532
0.48043
0.49022
0.5
0.49511
0.5
0.44521
0.42955
0.53033
0.5998
0.6047
0.50978
0.45988
0.50489
0.5499
0.57045
0.5998
0.62035
0.63014
0.54012
0.46477
0.43542
0.43542
0.44521
0.4501
0.44521
0.45499
0.44031
0.4501
0.45499
0.44031
0.42955
0.42466
0.42955
0.41977
0.42466
0.40998
0.41487
0.3953
0.38943
0.36986
0.37965
0.36497
0.36986
0.36008
0.37965
0.37965
0.4002
0.41977
0.43542
0.45499
0.47456
0.49022
0.5
0.50489
0.51468
0.52544
0.51468
0.52544
0.51957
0.51957
0.53523
0.51468
0.51468
0.50489
0.5
0.51468
0.5
0.51468
0.51468
0.50978
0.5
0.50978
0.51468
0.5
0.5
0.50978
0.51468
0.50489
0.51468
0.54012
0.54501
0.5499
0.53523
0.51957
0.52544
0.49511
0.5
0.48532
0.48043
0.47456
0.46477
0.46477
0.46477
0.45499
0.48532
0.47456
0.47456
0.46967
0.48043
0.47456
0.5
0.48043
0.49511
0.5
0.48043
0.49511
0.5
0.48532
0.44031
0.46477
0.52544
0.58023
0.59491
0.51957
0.4501
0.47456
0.51468
0.5499
0.55969
0.54501
0.56458
0.53033
0.45988
0.40998
0.42466
0.43542
0.42466
0.43542
0.4501
0.42466
0.42955
0.44521
0.4501
0.44521
0.42466
0.44031
0.42955
0.4501
0.40998
0.3953
0.3953
0.38454
0.37965
0.38943
0.36986
0.36497
0.37476
0.36986
0.37476
0.37965
0.40509
0.41487
0.44521
0.46967
0.46477
0.48532
0.5
0.51468
0.5
0.50978
0.50978
0.51957
0.53523
0.5
0.5
0.51468
0.51957
0.51468
0.5
0.51468
0.51957
0.52544
0.51468
0.5
0.50978
0.5
0.5
0.50489
0.50978
0.51957
0.52544
0.51957
0.54501
0.54012
0.52544
0.50978
0.49022
0.48532
0.47456
0.46967
0.47456
0.46967
0.45988
0.46967
0.46477
0.4501
0.46477
0.45988
0.47456
0.47456
0.47456
0.47456
0.49022
0.48532
0.48043
0.48532
0.5
0.5
0.5
0.50489
0.4501
0.43542
0.53033
0.59491
0.55969
0.5
0.4501
0.50978
0.54501
0.55969
0.57534
0.59002
0.61057
0.54012
0.46477
0.44031
0.44031
0.43542
0.4501
0.45499
0.42955
0.43542
0.43542
0.44031
0.43542
0.42466
0.43542
0.41977
0.41977
0.40998
0.40998
0.40509
0.37965
0.38454
0.36986
0.35519
0.35519
0.34442
0.35519
0.35519
0.35519
0.37476
0.38943
0.41487
0.44031
0.46477
0.48532
0.5
0.5
0.51957
0.52544
0.51957
0.52544
0.53523
0.54012
0.51957
0.51468
0.53523
0.51957
0.51957
0.52544
0.53033
0.51468
0.54012
0.50489
0.51468
0.50489
0.5
0.51468
0.51957
0.50489
0.50978
0.5
0.54501
0.52544
0.51957
0.52544
0.50978
0.51468
0.49022
0.48532
0.46477
0.4501
0.46477
0.47456
0.45499
0.45499
0.4501
0.46967
0.48043
0.49022
0.47456
0.46967
0.47456
0.49022
0.47456
0.47456
0.48043
0.49022
0.49511
0.5
0.5
0.49022
0.45988
0.49022
0.55479
0.59002
0.52544
0.46477
0.4501
0.56458
0.6047
0.59002
0.59491
0.62524
0.59491
0.51957
0.45499
0.44521
0.43542
0.44521
0.4501
0.43542
0.42955
0.42955
0.42466
0.42466
0.41977
0.41977
0.42466
0.42466
0.41487
0.40998
0.3953
0.37965
0.37476
0.36497
0.34442
0.33464
0.33464
0.34442
0.35519
0.36497
0.37965
0.4002
0.41977
0.43542
0.45499
0.47456
0.5
0.50978
0.51957
0.53033
0.52544
0.52544
0.53523
0.54012
0.52544
0.52544
0.53033
0.52544
0.52544
0.53033
0.52544
0.52544
0.51957
0.51957
0.51957
0.51957
0.52544
0.53033
0.51468
0.51468
0.51957
0.53523
0.54012
0.54501
0.53033
0.50978
0.5
0.49511
0.46967
0.46477
0.46967
0.45988
0.4501
0.45988
0.45988
0.46967
0.46477
0.47456
0.47456
0.48043
0.48043
0.48532
0.48043
0.48532
0.49511
0.5
0.5
0.5
0.5
0.49511
0.46477
0.44521
0.50978
0.58513
0.62524
0.5499
0.48043
0.45988
0.56458
0.58513
0.61546
0.63503
0.64971
0.59002
0.49511
0.4501
0.44521
0.44031
0.44521
0.44521
0.44521
0.44521
0.4501
0.43542
0.43542
0.43542
0.43542
0.42466
0.42466
0.41487
0.40509
0.4002
0.3953
0.37965
0.37965
0.36986
0.35519
0.36008
0.36497
0.36008
0.38454
0.40998
0.42466
0.43542
0.46477
0.48043
0.49022
0.50489
0.51468
0.51957
0.51957
0.53033
0.51957
0.51957
0.51468
0.51957
0.51957
0.51957
0.51957
0.50978
0.50489
0.50489
0.50978
0.51468
0.5
0.5
0.5
0.49511
0.49511
0.49511
0.50978
0.51468
0.51468
0.52544
0.52544
0.53523
0.53523
0.53033
0.50489
0.49511
0.48043
0.48043
0.47456
0.46967
0.46477
0.46477
0.46967
0.46477
0.46477
0.46967
0.47456
0.47456
0.46967
0.48043
0.47456
0.47456
0.48532
0.49022
0.47456
0.47456
0.49511
0.5
0.49022
0.45499
0.4501
0.51957
0.59491
0.5499
0.49022
0.44521
0.50978
0.55479
0.58513
0.5998
0.63014
0.63992
0.5499
0.45988
0.43542
0.43542
0.43542
0.42955
0.43542
0.44031
0.44521
0.4501
0.44031
0.42955
0.42466
0.42955
0.42466
0.40998
0.40509
0.4002
0.3953
0.38454
0.37476
0.36986
0.35519
0.35519
0.35519
0.36497
0.36008
0.37965
0.38943
0.41487
0.43542
0.44521
0.46967
0.49022
0.49511
0.50489
0.50978
0.51468
0.51957
0.52544
0.51957
0.51468
0.51468
0.51957
0.51468
0.51468
0.51468
0.50978
0.51468
0.50489
0.51468
0.50978
0.5
0.5
0.5
0.5
0.5
0.50978
0.51468
0.52544
0.54012
0.5499
0.54012
0.52544
0.51957
0.50978
0.5
0.5
0.48043
0.47456
0.46477
0.46477
0.46477
0.47456
0.46477
0.47456
0.46967
0.47456
0.48532
0.47456
0.47456
0.48043
0.49022
0.48532
0.49022
0.48532
0.5
0.50489
0.49022
0.4501
0.46477
0.52544
0.58513
0.55969
0.5
0.45499
0.51957
0.55479
0.57045
0.57045
0.59002
0.61057
0.5
0.41487
0.40509
0.44031
0.44521
0.4501
0.44521
0.4501
0.45988
0.44521
0.4501
0.44521
0.45499
0.43542
0.43542
0.42955
0.42955
0.43542
0.40998
0.40509
0.40509
0.38454
0.37965
0.37965
0.37965
0.36497
0.37476
0.3953
0.40509
0.41977
0.43542
0.45499
0.47456
0.48043
0.50489
0.5
0.50978
0.51957
0.51957
0.51957
0.51468
0.51957
0.52544
0.51957
0.51468
0.50978
0.51957
0.50978
0.51957
0.50489
0.51468
0.5
0.50978
0.5
0.5
0.49511
0.50978
0.51468
0.5
0.50978
0.52544
0.54012
0.54501
0.52544
0.5
0.50978
0.47456
0.46967
0.46967
0.46967
0.46477
0.46967
0.4501
0.45988
0.45499
0.45499
0.45988
0.45988
0.47456
0.48043
0.48532
0.48532
0.48532
0.48043
0.48043
0.48532
0.49511
0.5
0.48043
0.45499
0.44521
0.51957
0.58513
0.59491
0.50978
0.45988
0.49511
0.54012
0.55969
0.58023
0.5998
0.58513
0.53523
0.45499
0.42466
0.43542
0.41487
0.41487
0.42466
0.42466
0.42955
0.42466
0.41487
0.42466
0.42466
0.43542
0.41977
0.44031
0.40509
0.40998
0.3953
0.4002
0.36986
0.37965
0.36008
0.37965
0.34442
0.33464
0.36497
0.37476
0.36008
0.38454
0.42466
0.43542
0.45499
0.46477
0.45988
0.5
0.50978
0.53523
0.53033
0.54012
0.53033
0.54501
0.53033
0.53523
0.51957
0.51957
0.51957
0.52544
0.53523
0.51957
0.51957
0.51468
0.51957
0.53033
0.50489
0.5
0.50489
0.51468
0.50978
0.53033
0.54012
0.54501
0.54012
0.54501
0.5
0.49022
0.48532
0.47456
0.45499
0.44031
0.45499
0.4501
0.44521
0.46477
0.46477
0.4501
0.45499
0.47456
0.49511
0.5
0.49022
0.48043
0.49511
0.5
0.49511
0.5
0.50978
0.51957
0.5
0.49022
0.45988
0.51957
0.5998
0.61546
0.5499
0.48043
0.46967
0.58513
0.61057
0.63503
0.64971
0.66536
0.6047
0.50978
0.46477
0.44521
0.44031
0.4501
0.44521
0.45988
0.42466
0.43542
0.4501
0.44521
0.43542
0.44031
0.42466
0.40998
0.3953
0.4002
0.40509
0.36008
0.35029
0.34442
0.35029
0.31507
0.31507
0.31996
0.33953
0.35519
0.35519
0.36986
0.3953
0.38454
0.41977
0.42955
0.4501
0.45988
0.46477
0.44521
0.44031
0.4501
0.44031
0.46477
0.47456
0.46967
0.46477
0.46967
0.48043
0.48532
0.49022
0.48043
0.47456
0.46967
0.48043
0.49022
0.47456
0.46477
0.47456
0.48532
0.49511
0.51957
0.5
0.50978
0.5
0.49022
0.45499
0.43542
0.42466
0.38943
0.38454
0.4002
0.38454
0.3953
0.35519
0.55479
0.68004
0.66536
0.63503
0.6047
0.59002
0.57045
0.57534
0.54501
0.53033
0.50978
0.51468
0.51957
0.5
0.50489
0.50978
0.48043
0.44031
0.46477
0.53523
0.5998
0.53033
0.46967
0.44521
0.50978
0.55479
0.57534
0.61546
0.63503
0.59491
0.50489
0.44521
0.41487
0.42466
0.43542
0.42955
0.4501
0.46477
0.4501
0.43542
0.44521
0.4501
0.44031
0.43542
0.42955
0.42466
0.43542
0.41977
0.40509
0.4002
0.38454
0.36008
0.36497
0.35519
0.37476
0.37965
0.37965
0.3953
0.41487
0.44521
0.4501
0.4501
0.47456
0.49511
0.51957
0.53523
0.52544
0.51957
0.53033
0.53523
0.51957
0.51957
0.51957
0.53033
0.52544
0.53523
0.52544
0.52544
0.5
0.50489
0.50978
0.50489
0.51468
0.50978
0.50489
0.51957
0.51468
0.50978
0.51468
0.52544
0.51957
0.5499
0.57045
0.54501
0.52544
0.50978
0.5
0.5
0.5
0.5
0.49022
0.48043
0.47456
0.48043
0.47456
0.48043
0.48043
0.49022
0.5
0.49511
0.50489
0.5
0.49511
0.48532
0.48043
0.48532
0.5
0.51957
0.52544
0.49022
0.4501
0.5
0.55969
0.59491
0.53523
0.48043
0.45499
0.5499
0.59002
0.62035
0.63503
0.63992
0.5998
0.50978
0.44521
0.44031
0.45988
0.44031
0.44521
0.45988
0.4501
0.45499
0.46477
0.43542
0.44521
0.4501
0.44521
0.44031
0.4501
0.42466
0.41487
0.40998
0.40509
0.3953
0.3953
0.38454
0.37476
0.38943
0.40509
0.38454
0.4002
0.42466
0.44521
0.4501
0.45988
0.49022
0.5
0.51957
0.50978
0.52544
0.53033
0.51957
0.52544
0.53033
0.51957
0.50489
0.50978
0.50978
0.52544
0.51957
0.51468
0.51957
0.50489
0.5
0.5
0.50978
0.50489
0.51468
0.51468
0.51957
0.52544
0.50489
0.52544
0.53033
0.53523
0.54501
0.55479
0.52544
0.51957
0.50978
0.51468
0.47456
0.47456
0.48043
0.5
0.46967
0.45499
0.4501
0.47456
0.46967
0.47456
0.49511
0.47456
0.49022
0.5
0.47456
0.46967
0.48043
0.49022
0.50978
0.51468
0.48532
0.47456
0.4501
0.49022
0.5499
0.59002
0.57534
0.50978
0.46967
0.50978
0.54501
0.57045
0.59002
0.59002
0.55969
0.51957
0.44031
0.42466
0.42955
0.4501
0.46477
0.42955
0.41977
0.4501
0.45499
0.44031
0.43542
0.42466
0.44031
0.42466
0.42955
0.41977
0.40998
0.41977
0.38943
0.3953
0.37965
0.35029
0.34442
0.36008
0.36986
0.37965
0.38454
0.40509
0.42955
0.4501
0.43542
0.4501
0.48043
0.48532
0.50978
0.52544
0.54012
0.52544
0.53523
0.50978
0.52544
0.52544
0.53523
0.51957
0.54012
0.51957
0.51957
0.52544
0.54501
0.5
0.5
0.50489
0.50978
0.49511
0.51468
0.51468
0.50489
0.5
0.53033
0.51468
0.54501
0.5499
0.51957
0.51468
0.51468
0.5
0.5
0.48043
0.48532
0.46967
0.46477
0.46967
0.45988
0.46477
0.46967
0.48532
0.5
0.47456
0.45988
0.46967
0.49022
0.48043
0.48532
0.48043
0.49511
0.5
0.51957
0.49511
0.48043
0.4501
0.49511
0.55969
0.5998
0.55969
0.51957
0.45499
0.53033
0.58023
0.6047
0.64971
0.66047
0.62524
0.53033
0.46477
0.44031
0.44521
0.41487
0.42955
0.44521
0.4501
0.45499
0.44031
0.44521
0.42955
0.44031
0.42466
0.41977
0.41977
0.41977
0.40509
0.38454
0.3953
0.37476
0.36986
0.37476
0.36986
0.35519
0.35519
0.36986
0.35519
0.37965
0.41487
0.44521
0.45988
0.48043
0.48043
0.49022
0.5
0.50978
0.51957
0.51957
0.54012
0.54501
0.54012
0.53033
0.52544
0.53523
0.51957
0.50978
0.51468
0.50978
0.51957
0.51957
0.52544
0.50978
0.5
0.49022
0.48043
0.5
0.5
0.50489
0.51468
0.50978
0.5499
0.53033
0.53523
0.52544
0.51957
0.50978
0.51468
0.47456
0.48043
0.48043
0.49022
0.45988
0.47456
0.45499
0.46477
0.48532
0.46967
0.46477
0.47456
0.48043
0.49511
0.48532
0.47456
0.48532
0.48043
0.5
0.5
0.50489
0.49511
0.48532
0.46967
0.45988
0.52544
0.5998
0.61546
0.50978
0.4501
0.50489
0.56458
0.5998
0.62035
0.63992
0.64481
0.55479
0.45988
0.44521
0.42466
0.42466
0.42466
0.44521
0.4501
0.44521
0.42955
0.41977
0.42955
0.43542
0.41977
0.41487
0.43542
0.41977
0.40509
0.38943
0.36008
0.36497
0.35519
0.35519
0.37476
0.36497
0.35519
0.36497
0.37476
0.38454
0.40509
0.42955
0.42466
0.46967
0.49511
0.53523
0.5
0.5
0.5
0.53033
0.51957
0.51957
0.51468
0.51957
0.51468
0.52544
0.53523
0.50489
0.50978
0.5
0.51957
0.5
0.48532
0.50489
0.49022
0.48043
0.49022
0.48043
0.5
0.51957
0.53523
0.50489
0.51468
0.54012
0.54501
0.53033
0.51957
0.5
0.49511
0.5
0.48532
0.46967
0.47456
0.49022
0.46477
0.4501
0.4501
0.46967
0.47456
0.46477
0.46477
0.47456
0.46477
0.47456
0.5
0.48532
0.47456
0.48043
0.47456
0.48043
0.51957
0.52544
0.45988
0.44521
0.51468
0.59002
0.61546
0.53523
0.45499
0.43542
0.54501
0.58513
0.61057
0.63014
0.63992
0.55479
0.46477
0.44031
0.45988
0.46967
0.41977
0.42466
0.44031
0.42466
0.44031
0.42466
0.42955
0.41977
0.44031
0.42466
0.41487
0.38454
0.3953
0.4002
0.36497
0.36986
0.37965
0.36008
0.35029
0.37476
0.35519
0.35029
0.36986
0.38454
0.37965
0.41977
0.4501
0.45988
0.49022
0.5
0.5
0.54012
0.51468
0.5
0.5
0.53033
0.53523
0.50489
0.51957
0.5
0.49511
0.49022
0.52544
0.49511
0.49022
0.5
0.52544
0.5
0.49022
0.49511
0.49022
0.53523
0.49511
0.45499
0.47456
0.48532
0.5
0.50978
0.53033
0.54501
0.5499
0.54501
0.55479
0.48532
0.47456
0.47456
0.46967
0.48532
0.47456
0.45499
0.47456
0.47456
0.47456
0.45988
0.46477
0.47456
0.46477
0.47456
0.47456
0.49022
0.49511
0.46967
0.46967
0.48043
0.49511
0.5
0.46967
0.44521
0.45499
0.51468
0.56458
0.57534
0.53033
0.47456
0.4501
0.54012
0.55969
0.57534
0.58513
0.59491
0.51468
0.43542
0.41977
0.44031
0.4501
0.42955
0.41487
0.42466
0.44521
0.4501
0.45499
0.44031
0.44521
0.41977
0.44031
0.45988
0.41977
0.41977
0.37965
0.38454
0.4002
0.37965
0.36986
0.36008
0.38454
0.36497
0.36986
0.37965
0.37476
0.40509
0.41487
0.42466
0.4501
0.45499
0.47456
0.49022
0.51468
0.51468
0.51957
0.51468
0.52544
0.53033
0.51957
0.51957
0.51957
0.50489
0.51468
0.50489
0.51957
0.50489
0.51468
0.50489
0.50978
0.5
0.50978
0.5
0.5
0.49511
0.49022
0.50489
0.50978
0.51468
0.50489
0.53033
0.5499
0.52544
0.5
0.51468
0.49022
0.47456
0.46967
0.48043
0.49511
0.47456
0.43542
0.45499
0.47456
0.48043
0.4501
0.46477
0.46477
0.49022
0.46967
0.45988
0.49022
0.48532
0.47456
0.48043
0.47456
0.47456
0.48043
0.46967
0.4501
0.49022
0.57045
0.5998
0.55479
0.47456
0.44521
0.52544
0.55969
0.58513
0.57045
0.58023
0.54501
0.47456
0.42955
0.40998
0.42955
0.44521
0.45499
0.44521
0.43542
0.45988
0.42955
0.42466
0.44521
0.42466
0.44031
0.44521
0.40998
0.41487
0.41977
0.41487
0.41977
0.36497
0.37965
0.36497
0.35519
0.36008
0.36497
0.36008
0.36008
0.4002
0.41977
0.43542
0.4501
0.45988
0.48043
0.50978
0.52544
0.51468
0.50978
0.51468
0.52544
0.54012
0.55479
0.54012
0.51468
0.50489
0.54501
0.51468
0.50978
0.52544
0.53033
0.52544
0.50978
0.54501
0.52544
0.49022
0.50978
0.5
0.49511
0.49511
0.5
0.51468
0.53523
0.54012
0.54501
0.54501
0.54501
0.49511
0.49022
0.46477
0.46477
0.47456
0.48043
0.46967
0.45988
0.46477
0.46967
0.49022
0.47456
0.48532
0.45988
0.45499
0.46967
0.48043
0.48532
0.47456
0.49022
0.5
0.49511
0.50978
0.49511
0.48043
0.45988
0.4501
0.51957
0.6047
0.62035
0.5
0.45499
0.53523
0.59491
0.59002
0.62035
0.61546
0.63992
0.56458
0.45988
0.44521
0.44031
0.4501
0.45499
0.42955
0.42466
0.44031
0.44521
0.42955
0.44521
0.42466
0.43542
0.41977
0.42955
0.41977
0.42466
0.42955
0.38454
0.35029
0.35029
0.36497
0.33464
0.33953
0.35519
0.36986
0.38454
0.40509
0.4002
0.44521
0.44031
0.45988
0.47456
0.49511
0.49511
0.51468
0.52544
0.51468
0.53523
0.55969
0.51957
0.53033
0.50978
0.51957
0.54012
0.49022
0.49511
0.50489
0.51468
0.50978
0.51957
0.50489
0.51957
0.5
0.50978
0.49511
0.49022
0.49511
0.51468
0.51957
0.51468
0.52544
0.54501
0.5499
0.53523
0.5
0.5
0.49022
0.48532
0.47456
0.48043
0.48532
0.5
0.45988
0.4501
0.45499
0.48043
0.47456
0.46967
0.45499
0.46967
0.48043
0.5
0.49511
0.48043
0.47456
0.47456
0.48532
0.51957
0.5
0.48532
0.4501
0.46967
0.55479
0.61546
0.5499
0.46967
0.44031
0.51468
0.57045
0.59002
0.6047
0.62524
0.61057
0.54501
0.45499
0.44031
0.45988
0.41977
0.41487
0.42466
0.44031
0.42466
0.44031
0.41977
0.40998
0.41487
0.42466
0.43542
0.41977
0.3953
0.38943
0.38454
0.4002
0.35519
0.36008
0.33464
0.33464
0.33464
0.35519
0.36986
0.38454
0.4002
0.40509
0.44521
0.4501
0.46967
0.48043
0.48532
0.50489
0.51957
0.50978
0.51957
0.53033
0.50489
0.5
0.50978
0.53523
0.51957
0.52544
0.50978
0.50489
0.5
0.50489
0.5
0.49511
0.5
0.49022
0.5
0.50978
0.48043
0.49511
0.50489
0.51468
0.5
0.50489
0.51468
0.53523
0.54012
0.54501
0.50489
0.5
0.48043
0.46967
0.47456
0.47456
0.45988
0.4501
0.44521
0.45499
0.42955
0.42466
0.43542
0.44521
0.45499
0.47456
0.49022
0.49511
0.5
0.49511
0.48532
0.45988
0.45499
0.47456
0.47456
0.45988
0.41977
0.48532
0.54501
0.57045
0.52544
0.47456
0.4501
0.53523
0.57045
0.6047
0.58513
0.59002
0.53033
0.44031
0.40509
0.4501
0.45499
0.41977
0.44521
0.42466
0.42955
0.4501
0.44521
0.4501
0.45499
0.48043
0.42466
0.4002
0.38943
0.40509
0.3953
0.40509
0.40509
0.3953
0.38943
0.3953
0.36008
0.36986
0.36008
0.37476
0.40509
0.40998
0.40509
0.44031
0.45499
0.48532
0.5
0.49511
0.49022
0.51468
0.51957
0.5
0.51957
0.52544
0.54012
0.50489
0.5
0.49022
0.51957
0.52544
0.5
0.5
0.5
0.5
0.5
0.51957
0.53033
0.51468
0.49022
0.46967
0.46477
0.48532
0.50489
0.51468
0.51957
0.54501
0.56458
0.53523
0.5
0.5
0.48532
0.48043
0.46477
0.47456
0.45988
0.46477
0.45499
0.4501
0.47456
0.49022
0.5
0.47456
0.44521
0.4501
0.46477
0.47456
0.48043
0.48532
0.47456
0.48532
0.50978
0.5
0.47456
0.4501
0.44031
0.51957
0.57534
0.59002
0.50978
0.45499
0.4501
0.55969
0.58513
0.5499
0.54501
0.57045
0.52544
0.45499
0.43542
0.44031
0.4501
0.41977
0.43542
0.42955
0.43542
0.42466
0.43542
0.44521
0.43542
0.4501
0.42955
0.45988
0.41977
0.42466
0.4002
0.38454
0.38943
0.37476
0.37965
0.37476
0.38943
0.36986
0.35029
0.35519
0.37476
0.4002
0.44521
0.4501
0.44031
0.47456
0.49511
0.51468
0.51957
0.49511
0.50978
0.53033
0.51957
0.53033
0.54501
0.52544
0.53523
0.51957
0.55969
0.57045
0.5
0.50978
0.51468
0.51957
0.51468
0.53033
0.51957
0.52544
0.55479
0.50489
0.46967
0.49022
0.51468
0.51957
0.54012
0.54501
0.55479
0.51957
0.50489
0.5
0.48043
0.49511
0.46967
0.45499
0.4501
0.47456
0.46477
0.48043
0.49511
0.49022
0.50489
0.45988
0.4501
0.46967
0.47456
0.47456
0.48043
0.49022
0.51957
0.5
0.48043
0.5
0.46967
0.43542
0.5
0.55479
0.5998
0.55969
0.50978
0.46477
0.54012
0.55969
0.58513
0.62035
0.65558
0.63014
0.53523
0.44521
0.44031
0.42955
0.46477
0.43542
0.40998
0.42466
0.43542
0.44031
0.46967
0.43542
0.40509
0.42466
0.40509
0.40509
0.3953
0.40509
0.38454
0.38454
0.37965
0.36497
0.37965
0.36008
0.33464
0.33464
0.36008
0.38943
0.41487
0.42466
0.44031
0.4501
0.46967
0.47456
0.5
0.51468
0.50978
0.51957
0.53033
0.53033
0.55969
0.51957
0.49511
0.5
0.50489
0.53033
0.51468
0.50489
0.5
0.50978
0.51468
0.53033
0.49022
0.47456
0.48532
0.49511
0.51957
0.50978
0.5
0.50978
0.52544
0.54012
0.53523
0.52544
0.51468
0.50978
0.48532
0.50978
0.5
0.47456
0.4501
0.45988
0.44521
0.44521
0.4501
0.48532
0.49022
0.47456
0.46967
0.47456
0.46477
0.47456
0.47456
0.48532
0.5
0.47456
0.47456
0.49022
0.5
0.5
0.48532
0.46477
0.54501
0.56458
0.57534
0.47456
0.42955
0.48043
0.54501
0.58513
0.63014
0.63992
0.64481
0.61057
0.49022
0.42466
0.41977
0.42466
0.44031
0.4501
0.44031
0.4501
0.41977
0.42466
0.42955
0.44521
0.42466
0.42466
0.40509
0.4002
0.38943
0.40998
0.38454
0.36497
0.37476
0.35519
0.36008
0.36986
0.35519
0.35519
0.37476
0.40998
0.41977
0.4002
0.43542
0.46477
0.49511
0.49022
0.50489
0.48532
0.51468
0.52544
0.51468
0.51957
0.54501
0.49022
0.48043
0.49511
0.50489
0.50978
0.53033
0.54012
0.5
0.49022
0.48532
0.49022
0.5
0.51468
0.48532
0.5
0.50489
0.48043
0.49511
0.51468
0.52544
0.51957
0.53523
0.54012
0.53523
0.52544
0.50978
0.48043
0.48043
0.46477
0.4501
0.45499
0.4501
0.47456
0.46477
0.46967
0.46477
0.47456
0.49022
0.5
0.45499
0.46967
0.46477
0.47456
0.49511
0.46967
0.45988
0.48532
0.5
0.47456
0.45988
0.47456
0.50978
0.57045
0.52544
0.46967
0.4501
0.50978
0.5499
0.59002
0.6047
0.61057
0.57045
0.47456
0.41977
0.40998
0.42466
0.44031
0.4501
0.43542
0.4501
0.4501
0.44521
0.45499
0.4501
0.43542
0.41977
0.42466
0.41487
0.41977
0.40509
0.40998
0.3953
0.38943
0.4002
0.36986
0.37965
0.37965
0.36986
0.36497
0.38454
0.40509
0.4002
0.41977
0.4501
0.45988
0.49022
0.49511
0.51957
0.51957
0.5
0.5
0.51957
0.50978
0.51957
0.51468
0.53033
0.50978
0.5
0.53033
0.50489
0.49022
0.5
0.5
0.49022
0.49022
0.5
0.51957
0.48532
0.49022
0.5
0.51468
0.50978
0.51957
0.52544
0.51957
0.53033
0.53523
0.5
0.49511
0.48043
0.46967
0.4501
0.45988
0.46477
0.46967
0.45988
0.46477
0.46477
0.47456
0.48532
0.45499
0.45988
0.46477
0.46967
0.48532
0.49511
0.45499
0.45499
0.46967
0.47456
0.48532
0.46967
0.45499
0.43542
0.5
0.58023
0.61057
0.51957
0.45499
0.44521
0.51957
0.54012
0.56458
0.56458
0.59002
0.53033
0.45988
0.40509
0.42466
0.42955
0.43542
0.42466
0.42955
0.41977
0.42466
0.42955
0.44031
0.42955
0.42466
0.41977
0.41487
0.42466
0.41977
0.4002
0.3953
0.37965
0.37476
0.36008
0.35519
0.36497
0.36986
0.36497
0.37476
0.37965
0.40509
0.41977
0.44031
0.43542
0.4501
0.48043
0.49022
0.5
0.51468
0.52544
0.51957
0.53033
0.51957
0.51957
0.54012
0.50978
0.51468
0.50978
0.51957
0.51468
0.50489
0.50489
0.50978
0.51468
0.50978
0.50978
0.51468
0.51957
0.51468
0.51957
0.50978
0.51957
0.54012
0.54501
0.53523
0.51957
0.51468
0.48532
0.48043
0.47456
0.47456
0.47456
0.47456
0.46477
0.45988
0.45499
0.4501
0.46967
0.47456
0.48043
0.47456
0.47456
0.47456
0.48532
0.48043
0.48532
0.47456
0.48043
0.49022
0.5
0.48043
0.43542
0.46477
0.53033
0.59002
0.54501
0.48532
0.4501
0.53033
0.57045
0.59002
0.62524
0.65558
0.62035
0.5499
0.45499
0.4501
0.44031
0.42466
0.42466
0.42955
0.43542
0.44521
0.43542
0.43542
0.42955
0.44031
0.41977
0.41487
0.40998
0.40998
0.40509
0.38943
0.37965
0.36497
0.35519
0.35519
0.35519
0.35519
0.35519
0.35519
0.36497
0.38454
0.42466
0.42955
0.44521
0.46477
0.48043
0.49511
0.50489
0.51468
0.51957
0.51957
0.52544
0.52544
0.51957
0.51957
0.51957
0.51468
0.51468
0.50978
0.51468
0.51468
0.50978
0.51468
0.51957
0.49511
0.48532
0.49022
0.48532
0.49022
0.5
0.5
0.5
0.51468
0.52544
0.54012
0.54501
0.52544
0.50978
0.49511
0.48532
0.48043
0.47456
0.48043
0.48532
0.47456
0.46967
0.46967
0.47456
0.47456
0.48043
0.48043
0.48532
0.48532
0.49022
0.49511
0.49511
0.49511
0.49022
0.49022
0.5
0.50978
0.5
0.46967
0.4501
0.51468
0.58513
0.61057
0.52544
0.45499
0.4501
0.54501
0.57534
0.6047
0.63014
0.64481
0.59002
0.49022
0.4501
0.44031
0.43542
0.42955
0.43542
0.44031
0.43542
0.43542
0.44521
0.43542
0.42466
0.42466
0.41487
0.40998
0.41487
0.40509
0.3953
0.38454
0.37476
0.36497
0.35519
0.36008
0.36008
0.34442
0.35519
0.36497
0.37965
0.4002
0.41487
0.42955
0.45499
0.46967
0.48532
0.5
0.5
0.50978
0.50978
0.51468
0.51957
0.51468
0.50489
0.50489
0.5
0.5
0.5
0.50489
0.50489
0.5
0.49511
0.5
0.49022
0.48532
0.49022
0.49511
0.48043
0.48532
0.48532
0.5
0.51468
0.52544
0.53033
0.53523
0.51957
0.5
0.49511
0.49022
0.48043
0.47456
0.48532
0.46477
0.46477
0.45499
0.46967
0.46967
0.46967
0.46967
0.47456
0.47456
0.48043
0.48532
0.48532
0.49022
0.47456
0.46967
0.47456
0.49022
0.5
0.48532
0.44031
0.42955
0.50978
0.57534
0.59002
0.5
0.43542
0.48043
0.54501
0.55969
0.57534
0.59491
0.61057
0.51468
0.42955
0.41977
0.42466
0.41977
0.42955
0.44031
0.43542
0.44031
0.42466
0.42466
0.42955
0.42466
0.41977
0.42466
0.41487
0.40509
0.40509
0.4002
0.38454
0.37965
0.38454
0.36497
0.35519
0.35029
0.35029
0.36008
0.37965
0.37476
0.40998
0.42466
0.44031
0.45499
0.49022
0.5
0.5
0.49022
0.50489
0.5
0.51468
0.50489
0.50978
0.51468
0.50978
0.51468
0.50978
0.5
0.49511
0.5
0.49511
0.5
0.49511
0.5
0.49022
0.5
0.5
0.5
0.5
0.50489
0.5
0.51957
0.51957
0.53033
0.53033
0.54012
0.50489
0.5
0.49022
0.48043
0.47456
0.4501
0.46477
0.47456
0.4501
0.4501
0.45988
0.46967
0.45499
0.46477
0.47456
0.47456
0.46967
0.47456
0.48532
0.47456
0.49022
0.46967
0.48532
0.5
0.47456
0.44521
0.44031
0.5
0.57534
0.59491
0.51957
0.45499
0.44031
0.51957
0.54501
0.55969
0.5499
0.57045
0.52544
0.45988
0.41487
0.41487
0.41977
0.42955
0.43542
0.42955
0.4501
0.44031
0.42466
0.42955
0.42466
0.42466
0.41977
0.41487
0.41487
0.40509
0.3953
0.3953
0.38454
0.37476
0.36986
0.35519
0.36986
0.36497
0.35519
0.35519
0.37476
0.38454
0.40998
0.42466
0.44521
0.46967
0.49022
0.5
0.49022
0.50489
0.51957
0.51468
0.51957
0.51957
0.51468
0.51468
0.53033
0.51957
0.52544
0.51957
0.50978
0.51468
0.51468
0.51957
0.51957
0.50489
0.5
0.50978
0.50978
0.51957
0.53033
0.51468
0.51468
0.53033
0.54501
0.53523
0.51468
0.50489
0.49511
0.48532
0.47456
0.46477
0.46967
0.47456
0.45499
0.45499
0.46477
0.46477
0.47456
0.46967
0.48043
0.48532
0.49022
0.48532
0.48532
0.48043
0.49511
0.47456
0.49022
0.50489
0.49511
0.46967
0.44521
0.49511
0.55969
0.59491
0.53523
0.46967
0.45499
0.55479
0.58023
0.5998
0.61057
0.63992
0.5998
0.53033
0.45499
0.44031
0.43542
0.42955
0.44031
0.43542
0.44031
0.42955
0.42466
0.42466
0.42466
0.41977
0.42466
0.41487
0.42466
0.40509
0.4002
0.38943
0.3953
0.36008
0.35029
0.33953
0.33953
0.33464
0.33953
0.35029
0.36497
0.37965
0.41487
0.41977
0.43542
0.4501
0.46967
0.49022
0.50489
0.51468
0.50978
0.51468
0.51957
0.51957
0.51957
0.53033
0.51468
0.51957
0.51957
0.51468
0.51468
0.51957
0.51468
0.51957
0.50978
0.51957
0.50489
0.50978
0.51468
0.50978
0.5
0.51468
0.51957
0.51957
0.53523
0.53523
0.51957
0.50489
0.50978
0.48532
0.47456
0.48043
0.46967
0.46477
0.45988
0.45499
0.46477
0.45988
0.46477
0.46967
0.47456
0.48043
0.48532
0.46967
0.48043
0.48043
0.49511
0.48043
0.48043
0.5
0.50489
0.5
0.46967
0.44521
0.50978
0.58513
0.61057
0.51957
0.45988
0.48532
0.54501
0.57045
0.6047
0.63503
0.63992
0.58513
0.48532
0.44521
0.42466
0.42955
0.43542
0.44521
0.4501
0.43542
0.42955
0.42955
0.43542
0.42466
0.42466
0.42955
0.41977
0.40998
0.4002
0.3953
0.38454
0.37965
0.36497
0.36008
0.35029
0.34442
0.35029
0.35519
0.36986
0.3953
0.40998
0.42955
0.4501
0.46967
0.49022
0.5
0.51468
0.50978
0.51468
0.51468
0.53033
0.52544
0.50978
0.51957
0.51957
0.51957
0.51957
0.51957
0.50978
0.51468
0.5
0.50489
0.5
0.50978
0.5
0.49511
0.5
0.5
0.49511
0.5
0.5
0.50489
0.51468
0.53523
0.54012
0.54501
0.53033
0.5
0.49022
0.47456
0.47456
0.47456
0.47456
0.46477
0.46967
0.47456
0.46477
0.46967
0.49022
0.47456
0.48043
0.48043
0.49511
0.49511
0.49511
0.48043
0.48532
0.49022
0.48532
0.51468
0.51957
0.49511
0.46477
0.4501
0.52544
0.5998
0.61546
0.51957
0.4501
0.49022
0.55969
0.58513
0.61546
0.63014
0.63992
0.58023
0.48532
0.4501
0.42955
0.42466
0.44521
0.4501
0.44031
0.43542
0.44031
0.42955
0.42955
0.42466
0.42955
0.42466
0.41487
0.40998
0.40998
0.4002
0.38943
0.37965
0.36986
0.36008
0.35029
0.35029
0.35519
0.36986
0.37965
0.38943
0.40998
0.42466
0.45499
0.46967
0.48532
0.5
0.5
0.50489
0.51468
0.51957
0.51957
0.52544
0.52544
0.53033
0.53523
0.50978
0.50489
0.50489
0.51957
0.50978
0.5
0.50978
0.50489
0.50489
0.5
0.50489
0.47456
0.48043
0.49511
0.5
0.50489
0.50489
0.51957
0.53523
0.53033
0.53523
0.54012
0.51957
0.5
0.48043
0.46967
0.47456
0.46477
0.46967
0.45499
0.4501
0.45988
0.46477
0.46477
0.46477
0.46967
0.46477
0.46967
0.47456
0.47456
0.47456
0.48043
0.48532
0.49511
0.49022
0.49022
0.48043
0.4501
0.43542
0.51957
0.57534
0.58513
0.50489
0.4501
0.50489
0.5499
0.55969
0.56458
0.57045
0.58513
0.50978
0.41977
0.40509
0.42955
0.44031
0.44521
0.43542
0.44521
0.42955
0.4501
0.44521
0.42955
0.43542
0.43542
0.43542
0.42955
0.42466
0.41487
0.40509
0.40998
0.40509
0.38943
0.37476
0.37476
0.36986
0.37965
0.36986
0.3953
0.38943
0.40509
0.42466
0.44031
0.45988
0.48043
0.49022
0.5
0.51957
0.50489
0.51957
0.52544
0.51957
0.51468
0.53033
0.51957
0.50978
0.51468
0.51957
0.50489
0.51957
0.50978
0.51468
0.50489
0.50978
0.51957
0.5
0.5
0.50978
0.50489
0.50489
0.5
0.50978
0.53033
0.53523
0.54501
0.53523
0.51957
0.50489
0.5
0.48532
0.47456
0.46967
0.46967
0.45988
0.4501
0.44521
0.4501
0.45499
0.46967
0.46477
0.48532
0.48532
0.47456
0.47456
0.47456
0.49511
0.48043
0.47456
0.49511
0.50489
0.49511
0.48043
0.46967
0.45499
0.53033
0.6047
0.62524
0.50978
0.4501
0.49511
0.54501
0.55969
0.57045
0.55969
0.58023
0.51957
0.4501
0.42466
0.44031
0.44521
0.44031
0.42466
0.44031
0.44521
0.4501
0.44031
0.44521
0.4501
0.43542
0.45499
0.42466
0.40509
0.40998
0.4002
0.3953
0.4002
0.38943
0.37476
0.36008
0.35519
0.35519
0.37965
0.38454
0.37965
0.4002
0.41977
0.44031
0.46967
0.48532
0.5
0.5
0.51957
0.51957
0.53033
0.52544
0.52544
0.52544
0.51957
0.52544
0.53523
0.53033
0.54012
0.54012
0.51957
0.51957
0.54012
0.51957
0.51957
0.51468
0.51957
0.51468
0.50978
0.51957
0.51957
0.51957
0.54501
0.53033
0.54501
0.54501
0.53523
0.51957
0.50978
0.5
0.49022
0.48532
0.49022
0.48043
0.47456
0.48532
0.47456
0.46967
0.46477
0.47456
0.47456
0.48532
0.49022
0.48532
0.49022
0.5
0.50978
0.49511
0.48532
0.5
0.51468
0.50489
0.49022
0.4501
0.50489
0.58513
0.63503
0.57534
0.52544
0.49511
0.58023
0.6047
0.62524
0.64481
0.66536
0.61057
0.52544
0.46967
0.44521
0.43542
0.45988
0.43542
0.43542
0.44521
0.4501
0.4501
0.43542
0.44031
0.43542
0.42955
0.42466
0.41487
0.42466
0.4002
0.37965
0.37965
0.37965
0.36986
0.36497
0.35029
0.35519
0.35519
0.36986
0.37965
0.4002
0.42955
0.44521
0.44031
0.46477
0.47456
0.49022
0.49511
0.5
0.50978
0.51957
0.51957
0.53033
0.51957
0.53033
0.51468
0.51957
0.51468
0.53033
0.50489
0.51468
0.51957
0.51468
0.51957
0.50489
0.51468
0.5
0.5
0.50489
0.5
0.50978
0.52544
0.53033
0.53523
0.54501
0.54501
0.54501
0.53033
0.50489
0.5
0.48532
0.48532
0.49022
0.5
0.46967
0.45988
0.47456
0.47456
0.47456
0.46967
0.47456
0.47456
0.48043
0.48532
0.49511
0.5
0.48532
0.5
0.49022
0.48532
0.51468
0.5
0.46967
0.4501
0.50489
0.58023
0.62524
0.54012
0.46477
0.45499
0.55969
0.58513
0.6047
0.62524
0.65558
0.61057
0.50489
0.4501
0.44031
0.4501
0.44521
0.4501
0.44521
0.45988
0.44031
0.44521
0.44031
0.44031
0.42955
0.43542
0.43542
0.43542
0.42466
0.42466
0.40998
0.38454
0.38454
0.38454
0.36986
0.36497
0.36008
0.37476
0.38454
0.3953
0.41487
0.4501
0.45988
0.4501
0.47456
0.49022
0.50489
0.50978
0.50978
0.51468
0.52544
0.51957
0.51957
0.51957
0.53523
0.54012
0.50489
0.51468
0.50978
0.51957
0.51468
0.51468
0.50489
0.5
0.51468
0.50489
0.5
0.50489
0.5
0.50489
0.5
0.5
0.50489
0.51957
0.53033
0.55479
0.54501
0.54501
0.51957
0.50978
0.5
0.49511
0.49022
0.48043
0.47456
0.48043
0.46967
0.46967
0.47456
0.46967
0.48532
0.47456
0.48043
0.48043
0.48532
0.49511
0.48532
0.49511
0.48532
0.48043
0.49022
0.5
0.50489
0.48043
0.44031
0.46477
0.54501
0.6047
0.55479
0.48532
0.4501
0.52544
0.57534
0.6047
0.62524
0.63992
0.62035
0.54501
0.46967
0.4501
0.42955
0.42466
0.43542
0.44521
0.44521
0.44521
0.44031
0.44521
0.44521
0.42955
0.42466
0.42466
0.41487
0.40998
0.3953
0.38454
0.38943
0.37965
0.36008
0.35519
0.36986
0.37476
0.36008
0.37476
0.38943
0.40509
0.40998
0.43542
0.45988
0.48043
0.49511
0.5
0.51957
0.51468
0.51957
0.51957
0.53033
0.51468
0.51957
0.51957
0.53033
0.53523
0.51957
0.51957
0.51468
0.52544
0.51468
0.50978
0.50489
0.50489
0.50489
0.50978
0.49511
0.50978
0.51957
0.49511
0.48043
0.51468
0.50489
0.51957
0.51957
0.5499
0.55479
0.54501
0.51468
0.50489
0.49511
0.48532
0.49511
0.48043
0.46967
0.45988
0.46477
0.46967
0.48532
0.47456
0.48532
0.46967
0.48043
0.48532
0.49022
0.48043
0.48532
0.47456
0.48532
0.5
0.50489
0.49511
0.48532
0.4501
0.42955
0.50978
0.57534
0.59002
0.52544
0.47456
0.45988
0.54501
0.56458
0.58513
0.58023
0.61546
0.53523
0.44521
0.41977
0.44031
0.43542
0.4501
0.45988
0.44031
0.45499
0.44521
0.42955
0.44031
0.4501
0.44521
0.44521
0.42955
0.41977
0.40998
0.41977
0.40509
0.40509
0.38454
0.40509
0.41487
0.36497
0.36008
0.36497
0.38943
0.4002
0.3953
0.42955
0.4501
0.47456
0.49511
0.50978
0.5
0.50489
0.5
0.50978
0.51957
0.53523
0.51957
0.51957
0.51957
0.53033
0.54012
0.50489
0.50978
0.50489
0.51957
0.51468
0.50978
0.51468
0.51957
0.5
0.49511
0.51957
0.51468
0.5
0.49511
0.50489
0.51468
0.51957
0.51957
0.54501
0.54501
0.54501
0.55479
0.5
0.50489
0.47456
0.47456
0.46967
0.46477
0.45499
0.46967
0.45499
0.46967
0.45988
0.45988
0.46477
0.4501
0.46477
0.47456
0.47456
0.48043
0.47456
0.49511
0.48532
0.48043
0.5
0.48043
0.46967
0.42955
0.46967
0.54012
0.59491
0.5998
0.51468
0.44521
0.49022
0.5499
0.56458
0.57045
0.55479
0.58023
0.51468
0.45499
0.43542
0.4501
0.4501
0.44521
0.42955
0.4501
0.43542
0.42955
0.44031
0.43542
0.44521
0.43542
0.43542
0.42466
0.42466
0.40998
0.40998
0.37965
0.37965
0.37476
0.36497
0.35519
0.37476
0.36008
0.37476
0.36008
0.37965
0.41487
0.41977
0.42955
0.4501
0.47456
0.48532
0.49511
0.51468
0.51957
0.50978
0.51468
0.52544
0.51468
0.51957
0.51957
0.51468
0.51468
0.51468
0.50978
0.51957
0.50978
0.50489
0.51468
0.51468
0.51468
0.50978
0.51468
0.5
0.5
0.50978
0.50489
0.49511
0.50489
0.51957
0.53033
0.54501
0.54012
0.50978
0.5
0.47456
0.46967
0.47456
0.45988
0.45988
0.46967
0.46477
0.46477
0.46967
0.46477
0.47456
0.46477
0.47456
0.47456
0.47456
0.48043
0.48532
0.47456
0.49511
0.48532
0.5
0.51957
0.49022
0.45499
0.43542
0.50489
0.58513
0.61057
0.51957
0.45499
0.50489
0.57045
0.5998
0.5998
0.6047
0.61546
0.57534
0.49022
0.44031
0.42466
0.42955
0.43542
0.4501
0.4501
0.42466
0.43542
0.42466
0.44521
0.42466
0.41977
0.42466
0.40998
0.41977
0.42466
0.37965
0.37476
0.36008
0.35519
0.35519
0.34442
0.35029
0.34442
0.36008
0.37476
0.36986
0.38454
0.4002
0.42466
0.4501
0.46967
0.49511
0.5
0.51468
0.51468
0.51957
0.50978
0.5499
0.50978
0.5
0.51468
0.50978
0.51468
0.50489
0.51957
0.51468
0.51957
0.51957
0.5
0.5
0.5
0.49511
0.50489
0.51468
0.5
0.49511
0.49022
0.50978
0.51957
0.48043
0.50978
0.51957
0.51957
0.55479
0.56458
0.50489
0.5
0.49022
0.49511
0.47456
0.45499
0.45499
0.46477
0.46967
0.45499
0.45988
0.46967
0.48043
0.46967
0.50489
0.46477
0.45988
0.47456
0.5
0.46967
0.47456
0.46967
0.48532
0.5
0.48043
0.48532
0.42955
0.48532
0.55479
0.58023
0.51957
0.48532
0.4501
0.51468
0.55479
0.58023
0.54501
0.55969
0.51468
0.4501
0.40998
0.42955
0.4501
0.4501
0.43542
0.4501
0.45988
0.48043
0.43542
0.40998
0.41487
0.41977
0.42466
0.42955
0.41487
0.40998
0.42466
0.40509
0.38454
0.36008
0.36986
0.35519
0.35519
0.36008
0.35519
0.37965
0.37965
0.3953
0.41977
0.42466
0.4501
0.46477
0.45988
0.49511
0.52544
0.5
0.51957
0.51468
0.50978
0.52544
0.51957
0.54012
0.51957
0.52544
0.53033
0.51957
0.51957
0.53033
0.51957
0.51957
0.51957
0.53033
0.5
0.51468
0.5
0.5
0.50489
0.50978
0.50489
0.51468
0.51957
0.53033
0.53523
0.54012
0.51468
0.49022
0.48532
0.48532
0.49511
0.46477
0.47456
0.46477
0.46477
0.45988
0.47456
0.46967
0.46477
0.47456
0.45988
0.48043
0.48532
0.46967
0.47456
0.47456
0.48043
0.50489
0.49511
0.49022
0.5
0.49022
0.47456
0.4501
0.50978
0.57534
0.59002
0.51957
0.46967
0.46477
0.57534
0.5998
0.59491
0.61546
0.62524
0.58023
0.47456
0.45499
0.42466
0.42466
0.43542
0.44521
0.4501
0.45988
0.44521
0.41977
0.42466
0.42955
0.44521
0.41977
0.41487
0.40509
0.40998
0.40509
0.40998
0.3953
0.35519
0.35519
0.36008
0.36497
0.35519
0.36497
0.36008
0.37476
0.4002
0.42955
0.45499
0.46477
0.49022
0.50489
0.51957
0.52544
0.51468
0.51957
0.53033
0.54501
0.51957
0.51957
0.53523
0.52544
0.51468
0.50978
0.51957
0.50489
0.51468
0.50978
0.51468
0.51468
0.51468
0.50978
0.5
0.50489
0.50489
0.49022
0.50978
0.51468
0.50978
0.51468
0.53523
0.55479
0.55969
0.52544
0.50489
0.5
0.5
0.48043
0.48043
0.49511
0.46967
0.45988
0.46967
0.47456
0.46967
0.46967
0.46477
0.48043
0.49511
0.47456
0.51468
0.51957
0.47456
0.48043
0.49511
0.5
0.51957
0.50978
0.49022
0.4501
0.44031
0.51468
0.59002
0.61546
0.53523
0.46477
0.44521
0.53033
0.55479
0.58023
0.5998
0.62035
0.5499
0.45988
0.42955
0.44521
0.4501
0.46967
0.4501
0.44031
0.4501
0.44521
0.4501
0.44521
0.44031
0.4501
0.44031
0.44521
0.41487
0.41487
0.3953
0.38454
0.3953
0.38454
0.38454
0.37965
0.36986
0.37476
0.37965
0.4002
0.40509
0.42955
0.49511
0.44031
0.42955
0.45988
0.48043
0.5
0.51468
0.50978
0.51957
0.51957
0.51468
0.52544
0.51468
0.5
0.51957
0.51468
0.50978
0.50489
0.50978
0.51468
0.49022
0.5
0.49022
0.50489
0.50978
0.5
0.5
0.51468
0.51957
0.51468
0.48043
0.49511
0.50489
0.51957
0.54012
0.53523
0.54501
0.51957
0.51468
0.5
0.49511
0.48043
0.45988
0.46477
0.45988
0.45499
0.46967
0.4501
0.47456
0.48043
0.46477
0.45988
0.48043
0.46967
0.47456
0.49511
0.5
0.48043
0.46967
0.48532
0.49511
0.5
0.45988
0.43542
0.48532
0.55969
0.59491
0.53523
0.48532
0.46967
0.50489
0.52544
0.5499
0.57045
0.57045
0.51468
0.45499
0.40998
0.40509
0.44031
0.4501
0.42466
0.44031
0.44031
0.42955
0.42466
0.4501
0.42955
0.44031
0.42466
0.43542
0.41487
0.41977
0.42466
0.4002
0.38454
0.3953
0.38943
0.37965
0.35519
0.35519
0.36497
0.36008
0.37965
0.4002
0.40509
0.42466
0.44521
0.45499
0.47456
0.5
0.49511
0.5
0.51468
0.51468
0.52544
0.50978
0.51957
0.50978
0.51957
0.53033
0.51468
0.51468
0.51957
0.5
0.5
0.5
0.50978
0.5
0.49511
0.5
0.49022
0.5
0.51957
0.51468
0.50489
0.5
0.5
0.51957
0.53033
0.53523
0.50489
0.5
0.50489
0.47456
0.46967
0.47456
0.48043
0.45988
0.46477
0.44521
0.45499
0.46477
0.46967
0.47456
0.46967
0.48532
0.48532
0.5
0.46967
0.46477
0.48043
0.48043
0.48532
0.50978
0.49511
0.47456
0.44521
0.49022
0.57534
0.5998
0.53523
0.47456
0.44031
0.52544
0.57534
0.59002
0.59491
0.62035
0.58513
0.50489
0.44521
0.4501
0.43542
0.42955
0.42466
0.44521
0.4501
0.44031
0.42955
0.42955
0.43542
0.44031
0.44031
0.42955
0.42466
0.41487
0.40509
0.38943
0.37965
0.36986
0.37476
0.35519
0.36497
0.35029
0.35519
0.36008
0.37476
0.4002
0.40509
0.40998
0.44521
0.45988
0.48043
0.5
0.5
0.50978
0.52544
0.54012
0.54501
0.51468
0.51468
0.51957
0.53523
0.51468
0.51957
0.52544
0.51957
0.52544
0.51957
0.51468
0.51957
0.5
0.50978
0.5
0.49022
0.5
0.51957
0.49022
0.48532
0.49511
0.51468
0.53033
0.52544
0.53523
0.51468
0.50489
0.50978
0.49022
0.47456
0.47456
0.47456
0.48043
0.46477
0.45499
0.46477
0.47456
0.46967
0.4501
0.45988
0.45499
0.47456
0.48043
0.46967
0.48532
0.48043
0.46967
0.48043
0.47456
0.49022
0.47456
0.46477
0.42955
0.48532
0.55479
0.5998
0.53523
0.47456
0.45499
0.53523
0.58023
0.5998
0.61546
0.63992
0.59491
0.5
0.43542
0.42466
0.4501
0.42466
0.43542
0.44031
0.43542
0.42955
0.4501
0.43542
0.42466
0.42466
0.42955
0.41487
0.41977
0.42466
0.40998
0.4002
0.38943
0.37476
0.36497
0.36986
0.36497
0.36986
0.35519
0.36986
0.38943
0.40509
0.41487
0.43542
0.4501
0.47456
0.49511
0.50978
0.50489
0.50489
0.50978
0.51957
0.52544
0.50489
0.50978
0.50489
0.51468
0.53033
0.51468
0.5
0.50978
0.51468
0.50489
0.49511
0.5
0.50978
0.51468
0.49511
0.50978
0.5
0.50489
0.47456
0.5
0.49511
0.53033
0.50978
0.51957
0.54501
0.5499
0.54012
0.51957
0.50489
0.47456
0.48043
0.47456
0.46967
0.46477
0.47456
0.45499
0.48043
0.44031
0.45988
0.4501
0.47456
0.47456
0.47456
0.48043
0.47456
0.48043
0.46477
0.49022
0.49511
0.45988
0.49022
0.46967
0.47456
0.42466
0.46967
0.5499
0.59002
0.55479
0.47456
0.42466
0.48532
0.52544
0.54012
0.57045
0.55969
0.54012
0.48043
0.42466
0.40998
0.44521
0.42466
0.44031
0.42466
0.43542
0.44521
0.45499
0.46477
0.43542
0.4501
0.42466
0.44031
0.41977
0.42466
0.40998
0.41977
0.38943
0.3953
0.38454
0.4002
0.35519
0.36986
0.36986
0.37965
0.36986
0.37965
0.40998
0.42466
0.42955
0.4501
0.46967
0.48532
0.5
0.50489
0.49511
0.50978
0.51468
0.5
0.50489
0.50489
0.50489
0.51957
0.51468
0.5
0.5
0.50489
0.51957
0.51468
0.50978
0.49511
0.5
0.49511
0.50489
0.49022
0.50489
0.49022
0.51468
0.51468
0.53523
0.54501
0.54012
0.50978
0.5
0.48532
0.49022
0.47456
0.45499
0.4501
0.4501
0.4501
0.45988
0.46477
0.47456
0.46967
0.4501
0.46477
0.46967
0.45988
0.47456
0.46477
0.45988
0.47456
0.48043
0.47456
0.48532
0.51468
0.48043
0.42955
0.41487
0.49511
0.57045
0.59002
0.52544
0.44521
0.44031
0.5499
0.59002
0.59491
0.56458
0.58513
0.52544
0.46477
0.41977
0.42955
0.43542
0.44031
0.4501
0.42955
0.45499
0.44521
0.41977
0.42466
0.43542
0.44031
0.41977
0.43542
0.40998
0.40509
0.3953
0.40509
0.37476
0.37476
0.36986
0.35029
0.33953
0.35519
0.36497
0.35519
0.36986
0.3953
0.42466
0.42955
0.4501
0.46477
0.48043
0.49022
0.50489
0.51957
0.53033
0.54012
0.51468
0.51957
0.51957
0.54012
0.5499
0.51957
0.52544
0.51957
0.53033
0.52544
0.54501
0.51468
0.50489
0.50978
0.5
0.50489
0.51957
0.49511
0.49511
0.5
0.50489
0.51957
0.52544
0.51468
0.52544
0.52544
0.52544
0.51468
0.49511
0.48043
0.48043
0.49022
0.47456
0.48043
0.4501
0.4501
0.4501
0.46967
0.48532
0.47456
0.46967
0.47456
0.48043
0.50978
0.51957
0.47456
0.47456
0.47456
0.48532
0.49511
0.50489
0.51468
0.48043
0.4501
0.49511
0.57534
0.61057
0.54012
0.49511
0.45988
0.53523
0.57534
0.59491
0.61546
0.63014
0.57534
0.50978
0.43542
0.42466
0.43542
0.42955
0.45499
0.44521
0.42466
0.42955
0.44031
0.42955
0.44521
0.42466
0.41977
0.42955
0.42466
0.40998
0.41487
0.40509
0.3953
0.37965
0.37476
0.35519
0.35029
0.35519
0.36986
0.38454
0.38943
0.38454
0.40509
0.42466
0.45988
0.47456
0.48043
0.5
0.50978
0.5
0.50978
0.51957
0.52544
0.51468
0.50489
0.51468
0.50978
0.53033
0.50489
0.5
0.50489
0.50978
0.5
0.51468
0.51957
0.5
0.49511
0.49022
0.49022
0.5
0.5
0.49511
0.5
0.50489
0.51957
0.53523
0.53033
0.54012
0.53033
0.53033
0.53033
0.5
0.48532
0.47456
0.47456
0.46967
0.47456
0.46477
0.45988
0.46477
0.48043
0.46967
0.46477
0.47456
0.46967
0.48532
0.48532
0.47456
0.48532
0.48043
0.47456
0.49022
0.5
0.50489
0.46967
0.45499
0.43542
0.51468
0.59002
0.55479
0.50489
0.4501
0.50978
0.5499
0.57045
0.57045
0.57534
0.58023
0.48532
0.42466
0.40998
0.44031
0.43542
0.44521
0.44031
0.4501
0.4501
0.45499
0.44031
0.44031
0.44521
0.43542
0.43542
0.4501
0.44031
0.41487
0.40509
0.4002
0.40509
0.37965
0.37476
0.37476
0.36986
0.36008
0.38454
0.37965
0.4002
0.42466
0.44031
0.45499
0.47456
0.48043
0.50489
0.51957
0.5
0.50978
0.51468
0.51957
0.51957
0.53033
0.51957
0.52544
0.51957
0.53033
0.50978
0.50489
0.51957
0.51957
0.50489
0.50978
0.51468
0.51468
0.50489
0.50978
0.48532
0.5
0.5
0.5
0.50978
0.51957
0.52544
0.54501
0.54501
0.51957
0.5
0.48532
0.47456
0.47456
0.47456
0.47456
0.46967
0.45988
0.45499
0.46477
0.47456
0.47456
0.46967
0.48043
0.49022
0.47456
0.48043
0.49022
0.48043
0.48532
0.49022
0.48532
0.5
0.5
0.47456
0.4501
0.48043
0.55479
0.61546
0.56458
0.5
0.44521
0.49511
0.5499
0.56458
0.58023
0.58513
0.59491
0.51957
0.45499
0.44521
0.45499
0.44521
0.4501
0.43542
0.44031
0.44521
0.4501
0.44521
0.43542
0.44031
0.43542
0.42955
0.42466
0.42955
0.40998
0.40998
0.4002
0.38943
0.3953
0.37476
0.35519
0.36497
0.35519
0.35029
0.36008
0.37965
0.4002
0.43542
0.44521
0.4501
0.46967
0.49511
0.50978
0.51957
0.51957
0.53033
0.53033
0.53033
0.52544
0.54012
0.54501
0.53523
0.54012
0.52544
0.53033
0.51957
0.51957
0.51957
0.51468
0.51957
0.50978
0.51468
0.50978
0.50489
0.50489
0.51468
0.50978
0.51957
0.52544
0.51957
0.53523
0.53523
0.51468
0.5
0.49022
0.48532
0.48043
0.48532
0.47456
0.47456
0.47456
0.47456
0.46477
0.47456
0.47456
0.48043
0.47456
0.47456
0.48043
0.47456
0.48043
0.48532
0.5
0.49511
0.5
0.49022
0.5
0.49022
0.45988
0.4501
0.52544
0.59002
0.62035
0.53033
0.46967
0.5
0.57045
0.59491
0.61057
0.62524
0.63992
0.55479
0.46477
0.44031
0.44031
0.44031
0.44031
0.44521
0.4501
0.4501
0.44031
0.44031
0.42466
0.42955
0.42955
0.43542
0.42466
0.41487
0.40998
0.40998
0.38943
0.38454
0.37476
0.36986
0.36008
0.36008
0.36008
0.36986
0.38943
0.4002
0.40509
0.42955
0.4501
0.46477
0.48043
0.5
0.50978
0.50978
0.51957
0.51957
0.51468
0.51957
0.51957
0.51957
0.51957
0.51957
0.51468
0.50978
0.50978
0.50978
0.51468
0.50489
0.5
0.50978
0.49511
0.49511
0.49022
0.5
0.5
0.49022
0.5
0.51468
0.50978
0.51957
0.53033
0.54501
0.54501
0.53033
0.50978
0.50489
0.49022
0.48043
0.49022
0.47456
0.47456
0.46967
0.46477
0.46967
0.48043
0.46967
0.47456
0.47456
0.47456
0.47456
0.48043
0.48043
0.48532
0.48043
0.49511
0.49022
0.49511
0.5
0.49511
0.45988
0.44521
0.50978
0.59002
0.61057
0.51468
0.45499
0.4501
0.55479
0.58513
0.5998
0.61546
0.63503
0.57045
0.47456
0.44031
0.43542
0.44031
0.44521
0.44521
0.44521
0.43542
0.44521
0.44031
0.43542
0.43542
0.42955
0.41977
0.41977
0.41487
0.40509
0.4002
0.38943
0.37965
0.37476
0.36497
0.36008
0.36497
0.36497
0.36986
0.37476
0.38943
0.40998
0.42955
0.44521
0.46477
0.48043
0.5
0.5
0.50978
0.51957
0.51957
0.51957
0.51468
0.51957
0.51957
0.51468
0.51957
0.50489
0.50489
0.50978
0.50489
0.50978
0.5
0.5
0.50489
0.5
0.49511
0.49022
0.49022
0.49511
0.48532
0.49022
0.5
0.50489
0.51468
0.51957
0.53523
0.54501
0.54501
0.53033
0.51957
0.5
0.48532
0.48532
0.47456
0.47456
0.46967
0.46477
0.46477
0.45988
0.46477
0.46967
0.47456
0.47456
0.47456
0.47456
0.47456
0.47456
0.47456
0.47456
0.47456
0.49022
0.5
0.49022
0.46967
0.43542
0.45988
0.52544
0.58513
0.54012
0.48532
0.4501
0.51468
0.55969
0.57045
0.58513
0.5998
0.57534
0.48532
0.40998
0.42466
0.43542
0.44521
0.4501
0.44521
0.4501
0.44521
0.4501
0.4501
0.44521
0.44031
0.42466
0.42466
0.43542
0.42466
0.41487
0.41977
0.40509
0.3953
0.3953
0.37965
0.36986
0.36986
0.37476
0.37965
0.3953
0.40509
0.42466
0.44521
0.4501
0.46967
0.48043
0.49022
0.5
0.51957
0.51468
0.52544
0.52544
0.51957
0.51957
0.51957
0.51957
0.51957
0.51957
0.51957
0.52544
0.51468
0.51957
0.50489
0.50978
0.50489
0.5
0.5
0.5
0.5
0.49511
0.5
0.49511
0.5
0.5
0.51957
0.51957
0.53033
0.54012
0.54501
0.52544
0.51468
0.49022
0.48043
0.47456
0.47456
0.46967
0.47456
0.45988
0.45988
0.47456
0.47456
0.46967
0.48043
0.47456
0.47456
0.48043
0.48532
0.49022
0.48532
0.49511
0.49511
0.49511
0.5
0.49511
0.46967
0.44521
0.5
0.55969
0.5998
0.5499
0.49511
0.46477
0.52544
0.5499
0.55479
0.57045
0.58023
0.5499
0.48532
0.43542
0.42955
0.42955
0.43542
0.43542
0.44031
0.43542
0.44521
0.4501
0.44031
0.44521
0.42955
0.43542
0.43542
0.42955
0.41977
0.41487
0.40509
0.4002
0.38454
0.38454
0.37965
0.36986
0.36008
0.36497
0.36986
0.37965
0.3953
0.41487
0.43542
0.44521
0.46967
0.48532
0.5
0.50489
0.51957
0.52544
0.52544
0.53523
0.52544
0.53523
0.52544
0.51957
0.52544
0.52544
0.51957
0.52544
0.51957
0.51957
0.51468
0.51468
0.50978
0.50489
0.5
0.50978
0.50489
0.50489
0.5
0.5
0.50978
0.51957
0.51468
0.53523
0.54501
0.52544
0.51468
0.50489
0.49511
0.47456
0.48043
0.47456
0.47456
0.46477
0.46967
0.46477
0.46477
0.46477
0.47456
0.46967
0.46967
0.47456
0.48532
0.47456
0.47456
0.47456
0.48043
0.47456
0.49022
0.5
0.49511
0.46477
0.44031
0.49022
0.55479
0.5998
0.54501
0.48043
0.45988
0.54012
0.57045
0.59002
0.59491
0.6047
0.57045
0.48532
0.41977
0.42466
0.42466
0.43542
0.42955
0.43542
0.43542
0.44031
0.44031
0.42466
0.42466
0.42955
0.43542
0.41977
0.41487
0.41487
0.40509
0.38943
0.38454
0.37476
0.36008
0.36008
0.35029
0.34442
0.35519
0.35029
0.36986
0.38943
0.40509
0.42466
0.44521
0.45499
0.47456
0.48532
0.5
0.50489
0.51957
0.51468
0.51957
0.51957
0.51957
0.51957
0.51957
0.52544
0.51468
0.51957
0.51957
0.51957
0.51468
0.51468
0.50489
0.50489
0.50489
0.5
0.5
0.49511
0.5
0.5
0.5
0.50489
0.5
0.50489
0.51468
0.53523
0.54501
0.54012
0.53033
0.51468
0.50489
0.49511
0.48532
0.48532
0.48532
0.47456
0.47456
0.46967
0.46967
0.46967
0.47456
0.47456
0.48043
0.48043
0.48043
0.48532
0.48043
0.49022
0.49511
0.49022
0.48532
0.5
0.5
0.48532
0.44521
0.45988
0.51957
0.59491
0.5998
0.50489
0.45499
0.51957
0.57045
0.59002
0.6047
0.61546
0.63014
0.54501
0.45988
0.44031
0.44521
0.43542
0.44031
0.4501
0.44521
0.43542
0.44031
0.44031
0.44031
0.42955
0.42466
0.42466
0.42466
0.40998
0.40509
0.4002
0.37965
0.37476
0.36986
0.36008
0.35519
0.35519
0.35519
0.36497
0.36986
0.38454
0.40998
0.42466
0.44521
0.46967
0.48043
0.5
0.5
0.51468
0.51957
0.51957
0.53033
0.51957
0.51957
0.51957
0.51957
0.51957
0.50489
0.50978
0.50489
0.51468
0.50978
0.50978
0.50489
0.50489
0.49511
0.49511
0.49022
0.49022
0.49022
0.5
0.5
0.50489
0.5
0.50489
0.51957
0.51957
0.54501
0.54501
0.53523
0.50489
0.5
0.49022
0.48532
0.48043
0.48043
0.47456
0.46967
0.46477
0.46477
0.46477
0.47456
0.47456
0.47456
0.48043
0.48043
0.49022
0.47456
0.48532
0.49022
0.48043
0.48532
0.5
0.50978
0.5
0.45988
0.44521
0.50978
0.59002
0.6047
0.52544
0.45499
0.4501
0.5499
0.57045
0.6047
0.61546
0.63014
0.56458
0.47456
0.44521
0.43542
0.43542
0.44521
0.44521
0.4501
0.4501
0.44521
0.44031
0.44521
0.43542
0.42955
0.42466
0.42466
0.41487
0.40998
0.4002
0.3953
0.38454
0.37476
0.36497
0.36008
0.35519
0.35519
0.36497
0.37476
0.38943
0.40509
0.42466
0.44521
0.46477
0.48532
0.5
0.5
0.50978
0.51957
0.51957
0.51957
0.51957
0.51468
0.50978
0.51468
0.51957
0.51468
0.51468
0.50978
0.50489
0.50978
0.50489
0.5
0.5
0.50489
0.49022
0.5
0.49511
0.5
0.49022
0.49511
0.49022
0.5
0.5
0.50489
0.50978
0.52544
0.54012
0.54501
0.54012
0.51957
0.51957
0.50489
0.49022
0.48532
0.47456
0.46967
0.46477
0.46967
0.46477
0.46477
0.46967
0.47456
0.47456
0.47456
0.47456
0.47456
0.47456
0.48043
0.48043
0.48043
0.49022
0.48532
0.50489
0.49511
0.45988
0.42955
0.48043
0.54501
0.58023
0.52544
0.46967
0.45499
0.53523
0.55969
0.55969
0.57045
0.58513
0.53033
0.44521
0.4002
0.42466
0.43542
0.44031
0.44521
0.42955
0.4501
0.4501
0.44521
0.43542
0.43542
0.42466
0.43542
0.42466
0.42466
0.42466
0.40998
0.4002
0.3953
0.38943
0.37965
0.36497
0.36986
0.37476
0.36986
0.37476
0.37965
0.4002
0.40998
0.42955
0.4501
0.46967
0.47456
0.49022
0.50489
0.51468
0.5
0.51468
0.50978
0.51957
0.50489
0.51468
0.51468
0.51957
0.51468
0.50978
0.50978
0.50489
0.51957
0.5
0.50489
0.49511
0.5
0.50489
0.49022
0.49022
0.5
0.48532
0.48532
0.48532
0.5
0.49511
0.5
0.51468
0.53523
0.54501
0.53033
0.51957
0.50978
0.48532
0.47456
0.47456
0.46967
0.45988
0.46477
0.47456
0.4501
0.45988
0.45499
0.46967
0.45988
0.46967
0.47456
0.46967
0.47456
0.47456
0.48043
0.48043
0.47456
0.48532
0.49022
0.48532
0.4501
0.44031
0.50489
0.57045
0.6047
0.52544
0.45988
0.4501
0.53033
0.54501
0.55969
0.56458
0.58513
0.52544
0.45988
0.41977
0.43542
0.42466
0.42466
0.42955
0.44031
0.44031
0.44521
0.44031
0.44031
0.42955
0.43542
0.42955
0.42955
0.42466
0.42466
0.41487
0.40509
0.4002
0.38943
0.37965
0.37476
0.36986
0.36986
0.36986
0.37965
0.38454
0.4002
0.41487
0.42955
0.4501
0.46477
0.47456
0.5
0.50489
0.50978
0.51957
0.51957
0.52544
0.51957
0.51957
0.52544
0.52544
0.51957
0.51957
0.51957
0.51957
0.51957
0.51468
0.51957
0.51468
0.51957
0.50489
0.50489
0.50489
0.5
0.50489
0.5
0.5
0.5
0.50978
0.51957
0.52544
0.53523
0.53523
0.51957
0.50489
0.5
0.48043
0.47456
0.47456
0.46967
0.46967
0.46477
0.46967
0.46967
0.47456
0.46967
0.47456
0.47456
0.48043
0.47456
0.48043
0.48043
0.48043
0.48532
0.49022
0.49511
0.50489
0.51468
0.49511
0.45499
0.44521
0.52544
0.59491
0.6047
0.50978
0.4501
0.5
0.56458
0.58513
0.6047
0.62035
0.63992
0.55479
0.46967
0.44031
0.43542
0.44031
0.43542
0.44031
0.43542
0.44031
0.43542
0.44521
0.43542
0.43542
0.42466
0.42466
0.41977
0.40998
0.40509
0.3953
0.37965
0.37965
0.36986
0.36497
0.35519
0.35519
0.35519
0.36008
0.36986
0.38943
0.40509
0.42466
0.44521
0.46477
0.48043
0.49511
0.50489
0.51957
0.51957
0.52544
0.53033
0.52544
0.52544
0.51957
0.52544
0.51957
0.51957
0.51957
0.51957
0.51468
0.50978
0.51468
0.51957
0.50978
0.50978
0.50489
0.5
0.5
0.5
0.49511
0.5
0.50489
0.50978
0.50978
0.51468
0.53033
0.54012
0.5499
0.54501
0.53523
0.51468
0.50978
0.49511
0.49022
0.48532
0.48043
0.47456
0.46967
0.46967
0.47456
0.47456
0.48532
0.48532
0.49022
0.49022
0.49022
0.49022
0.49511
0.49022
0.49022
0.49022
0.49511
0.50978
0.50978
0.49511
0.4501
0.48532
0.5499
0.61057
0.55479
0.49511
0.4501
0.52544
0.56458
0.59002
0.61057
0.63992
0.61546
0.53033
0.45499
0.4501
0.4501
0.4501
0.4501
0.4501
0.4501
0.4501
0.4501
0.4501
0.44521
0.44031
0.44031
0.42955
0.42955
0.42466
0.41487
0.40509
0.4002
0.38943
0.37965
0.36986
0.36986
0.36497
0.36986
0.37965
0.38454
0.40509
0.42466
0.44031
0.45499
0.47456
0.49022
0.5
0.50978
0.51957
0.52544
0.51957
0.52544
0.52544
0.52544
0.52544
0.52544
0.51957
0.51957
0.51957
0.51957
0.51468
0.50978
0.50978
0.50978
0.50489
0.5
0.5
0.5
0.5
0.5
0.5
0.5
0.5
0.5
0.5
0.50978
0.51468
0.52544
0.54012
0.55479
0.54012
0.51957
0.5
0.49022
0.49511
0.48043
0.47456
0.47456
0.47456
0.46967
0.46477
0.46967
0.46967
0.46967
0.48043
0.48532
0.48043
0.48043
0.48532
0.48532
0.49022
0.48532
0.48043
0.49022
0.50489
0.49511
0.46967
0.44031
0.49022
0.56458
0.5998
0.53033
0.45988
0.44031
0.54012
0.57045
0.59002
0.5998
0.63503
0.58023
0.49022
0.44031
0.43542
0.42955
0.44521
0.4501
0.44031
0.44031
0.43542
0.43542
0.42955
0.42955
0.42955
0.42466
0.42466
0.42466
0.40509
0.40509
0.38943
0.38454
0.37965
0.37476
0.36497
0.35519
0.35519
0.35519
0.36986
0.37965
0.4002
0.41487
0.44521
0.46477
0.47456
0.48043
0.49511
0.5
0.50978
0.51468
0.51957
0.51957
0.51468
0.51957
0.51468
0.50978
0.51468
0.51957
0.51468
0.50978
0.51468
0.5
0.5
0.50489
0.50489
0.50978
0.5
0.5
0.5
0.5
0.5
0.50489
0.5
0.50978
0.5
0.51468
0.53033
0.53523
0.54501
0.54012
0.51957
0.50489
0.49022
0.48043
0.47456
0.47456
0.47456
0.47456
0.45499
0.4501
0.45988
0.45499
0.46967
0.46477
0.47456
0.47456
0.47456
0.49022
0.48532
0.46967
0.46477
0.47456
0.48532
0.49511
0.49022
0.46967
0.44031
0.47456
0.54012
0.58513
0.54012
0.47456
0.4501
0.53033
0.57045
0.55969
0.57045
0.58513
0.5499
0.45988
0.40509
0.42466
0.43542
0.44521
0.44031
0.45499
0.43542
0.44521
0.44521
0.44521
0.44031
0.43542
0.42955
0.43542
0.42955
0.42466
0.41487
0.40509
0.40509
0.38454
0.36986
0.37476
0.37476
0.36497
0.37965
0.36497
0.37965
0.40509
0.41977
0.4501
0.44521
0.47456
0.46477
0.48043
0.49022
0.50489
0.51957
0.49511
0.5
0.5
0.51957
0.50489
0.50489
0.50978
0.52544
0.5
0.5
0.5
0.51468
0.51957
0.49022
0.49022
0.48532
0.49511
0.49022
0.49511
0.49511
0.5
0.49022
0.50978
0.48532
0.48043
0.50489
0.51957
0.53033
0.54501
0.55479
0.51957
0.52544
0.48532
0.47456
0.47456
0.49022
0.46477
0.46967
0.45988
0.47456
0.45988
0.46477
0.46967
0.48532
0.46967
0.46477
0.47456
0.46967
0.48532
0.49511
0.48043
0.47456
0.49511
0.50978
0.48043
0.45499
0.43542
0.50489
0.57534
0.5998
0.52544
0.46477
0.4501
0.54012
0.5499
0.54012
0.57045
0.57045
0.52544
0.45988
0.41487
0.41977
0.43542
0.44521
0.42955
0.44031
0.4501
0.43542
0.44521
0.44031
0.42955
0.42466
0.44031
0.42466
0.42955
0.41487
0.4002
0.40998
0.4002
0.38454
0.37965
0.36008
0.37476
0.36986
0.35519
0.36986
0.37965
0.38943
0.42955
0.44031
0.42955
0.4501
0.46477
0.49022
0.5
0.51468
0.53523
0.52544
0.53523
0.51957
0.51468
0.53033
0.54501
0.58513
0.59491
0.61057
0.62524
0.63014
0.6047
0.67515
0.71526
0.70548
0.72016
0.71526
0.71526
0.68493
0.66047
0.6047
0.52544
0.4501
0.41977
0.42466
0.4501
0.42466
0.42466
0.40998
0.38943
0.37476
0.36986
0.36008
0.35519
0.34442
0.32485
0.29452
0.27006
0.27495
0.26517
0.27495
0.27984
0.28474
0.27495
0.29452
0.31507
0.35029
0.36986
0.4002
0.42955
0.44521
0.43542
0.46967
0.49022
0.49511
0.49022
0.5
0.50489
0.5
0.51468
0.52544
0.5
0.5
0.5
0.50978
0.51957
0.5
0.50978
0.5
0.50489
0.50489
0.5
0.5
0.50978
0.51468
0.49511
0.5
0.5
0.50489
0.5
0.51468
0.5
0.50489
0.51468
0.51957
0.50489
0.49022
0.5
0.50489
0.5
0.5
0.50489
0.50978
0.51468
0.5
0.5
0.5
0.50489
0.5
0.51468
0.50978
0.5
0.5
0.49022
0.49511
0.5
0.50489
0.50978
0.49511
0.5
0.49511
0.5
0.49511
0.5
0.50978
0.49511
0.48532
0.5
0.49511
0.5
0.5
0.5
0.49511
0.49022
0.49511
0.5
0.50489
0.5
0.50489
0.5
0.51957
0.52544
0.53033
0.53033
0.51957
0.50489
0.49022
0.47456
0.46967
0.45988
0.45988
0.45988
0.46477
0.45499
0.4501
0.45988
0.46967
0.45988
0.45988
0.47456
0.46967
0.47456
0.47456
0.48043
0.48532
0.48043
0.47456
0.48043
0.44031
0.41977
0.5
0.56458
0.59002
0.50978
0.44031
0.42955
0.52544
0.5499
0.5499
0.56458
0.59491
0.54012
0.46477
0.42955
0.42466
0.41977
0.43542
0.42955
0.44031
0.42955
0.42955
0.42955
0.43542
0.44031
0.42466
0.41977
0.42466
0.41977
0.42466
0.40509
0.38943
0.38454
0.38943
0.36986
0.37476
0.36497
0.36497
0.36986
0.37965
0.38454
0.4002
0.41977
0.44031
0.4501
0.48043
0.47456
0.48532
0.5
0.51957
0.50489
0.50978
0.50489
0.50978
0.51957
0.51957
0.52544
0.51957
0.50978
0.5
0.50489
0.50489
0.51468
0.50489
0.5
0.5
0.5
0.51468
0.49022
0.47456
0.48532
0.47456
0.48043
0.48532
0.49022
0.5
0.5
0.50489
0.51957
0.53033
0.54012
0.54501
0.50489
0.50978
0.48043
0.45499
0.4501
0.4501
0.45499
0.4501
0.47456
0.44521
0.4501
0.45988
0.45499
0.46967
0.47456
0.45988
0.46967
0.48043
0.48532
0.47456
0.49511
0.48532
0.48043
0.50489
0.51957
0.47456
0.44521
0.47456
0.55479
0.5998
0.54501
0.48532
0.46477
0.53523
0.57534
0.59002
0.61546
0.63503
0.59002
0.50978
0.45988
0.44521
0.42955
0.44031
0.44521
0.4501
0.4501
0.44031
0.44031
0.44521
0.44031
0.42955
0.43542
0.42466
0.40509
0.40509
0.41487
0.3953
0.37965
0.37476
0.36986
0.36497
0.37965
0.35519
0.36497
0.37476
0.3953
0.40509
0.40998
0.42955
0.4501
0.47456
0.49511
0.5
0.50978
0.49511
0.51957
0.52544
0.51468
0.5
0.50489
0.50978
0.50489
0.51468
0.51957
0.50978
0.5
0.49511
0.50489
0.49511
0.5
0.50978
0.49022
0.48532
0.49022
0.50489
0.49511
0.48043
0.48532
0.5
0.5
0.50489
0.51468
0.53523
0.53033
0.54501
0.54501
0.51957
0.50489
0.5
0.48532
0.48043
0.47456
0.47456
0.47456
0.47456
0.47456
0.46477
0.4501
0.46967
0.46477
0.47456
0.47456
0.48043
0.47456
0.48532
0.49022
0.49511
0.48532
0.46967
0.49511
0.49022
0.46967
0.43542
0.46967
0.53033
0.59002
0.5499
0.5
0.45499
0.51957
0.5499
0.54501
0.57045
0.58513
0.59002
0.48043
0.42466
0.40998
0.42466
0.42955
0.44031
0.43542
0.44031
0.4501
0.4501
0.44521
0.4501
0.44031
0.42466
0.42955
0.41487
0.40509
0.40509
0.4002
0.4002
0.40509
0.38943
0.37965
0.38943
0.36986
0.37476
0.36497
0.38454
0.38454
0.4002
0.41977
0.44521
0.46477
0.47456
0.46967
0.49511
0.5
0.50978
0.51468
0.51468
0.53033
0.51957
0.50489
0.50978
0.51468
0.50489
0.50978
0.50489
0.5
0.50489
0.51468
0.50978
0.51957
0.48532
0.48043
0.49022
0.48043
0.49022
0.49511
0.48532
0.49022
0.50489
0.5
0.50978
0.51957
0.53523
0.54012
0.54012
0.51957
0.51468
0.49022
0.49511
0.48043
0.48532
0.45988
0.46477
0.45499
0.45988
0.46967
0.46477
0.47456
0.46477
0.46477
0.46967
0.47456
0.46967
0.47456
0.48043
0.47456
0.48043
0.48532
0.47456
0.47456
0.46477
0.43542
0.48532
0.55969
0.59491
0.54012
0.48532
0.45499
0.53523
0.54501
0.5499
0.55479
0.57045
0.53033
0.46477
0.41977
0.40998
0.42955
0.43542
0.44031
0.44521
0.44521
0.44521
0.43542
0.42955
0.44521
0.42955
0.43542
0.42466
0.42466
0.42466
0.42466
0.4002
0.4002
0.38454
0.37965
0.37476
0.36008
0.35519
0.36986
0.37965
0.37965
0.4002
0.40998
0.42955
0.44521
0.46477
0.48043
0.48532
0.5
0.5
0.52544
0.53033
0.51957
0.54012
0.51957
0.52544
0.51468
0.51957
0.53033
0.53523
0.51468
0.51957
0.52544
0.51957
0.50978
0.51957
0.50489
0.50489
0.5
0.50489
0.5
0.5
0.5
0.5
0.50489
0.52544
0.51468
0.51957
0.53523
0.54501
0.50489
0.5
0.49022
0.47456
0.48532
0.49511
0.46477
0.4501
0.45988
0.46477
0.46967
0.47456
0.49022
0.47456
0.48532
0.49511
0.48532
0.48043
0.48043
0.48532
0.49022
0.48043
0.5
0.50978
0.49511
0.46967
0.45499
0.50978
0.56458
0.59491
0.54012
0.47456
0.45499
0.55479
0.58513
0.5998
0.61546
0.63992
0.59491
0.52544
0.43542
0.43542
0.42955
0.43542
0.4501
0.44521
0.44031
0.44031
0.44521
0.44521
0.4501
0.42466
0.43542
0.41487
0.40998
0.40509
0.38943
0.38454
0.38943
0.37476
0.36008
0.35029
0.35519
0.33953
0.34442
0.36008
0.36986
0.37965
0.4002
0.41487
0.44031
0.46477
0.49511
0.50978
0.51957
0.5
0.51468
0.53033
0.51468
0.50978
0.50489
0.51468
0.51957
0.51957
0.51957
0.50978
0.50489
0.50978
0.51468
0.50978
0.5
0.5
0.5
0.50489
0.48532
0.48043
0.49022
0.48532
0.49511
0.48043
0.49511
0.50978
0.53033
0.53523
0.53033
0.52544
0.51468
0.5
0.49022
0.47456
0.46967
0.47456
0.46967
0.47456
0.45988
0.4501
0.46477
0.47456
0.46967
0.47456
0.47456
0.48043
0.47456
0.48043
0.49022
0.5
0.48532
0.5
0.49511
0.5
0.5
0.45499
0.44031
0.5
0.58023
0.61057
0.53523
0.46477
0.4501
0.54501
0.56458
0.58513
0.61546
0.63014
0.58513
0.5
0.44521
0.43542
0.43542
0.44521
0.44521
0.4501
0.43542
0.42955
0.44521
0.43542
0.44031
0.42955
0.42466
0.42466
0.41977
0.40998
0.40509
0.41487
0.37965
0.37476
0.37965
0.36986
0.35029
0.34442
0.35519
0.37476
0.37965
0.4002
0.41487
0.43542
0.46477
0.47456
0.5
0.49511
0.49511
0.50489
0.50978
0.51957
0.50978
0.50978
0.51957
0.51957
0.51957
0.51957
0.51468
0.50489
0.5
0.5
0.5
0.5
0.5
0.5
0.49511
0.49511
0.50489
0.5
0.49022
0.48043
0.49511
0.5
0.50978
0.50489
0.51468
0.53033
0.54012
0.53523
0.53523
0.51957
0.50489
0.48043
0.47456
0.48043
0.46967
0.45988
0.46477
0.46967
0.46477
0.45988
0.46967
0.47456
0.48043
0.48532
0.46477
0.47456
0.47456
0.46477
0.47456
0.48043
0.47456
0.49511
0.50489
0.49511
0.45499
0.44521
0.51468
0.57534
0.58513
0.5
0.44521
0.48532
0.54501
0.57045
0.61057
0.62524
0.64481
0.55479
0.47456
0.44521
0.42466
0.42466
0.42955
0.43542
0.44521
0.4501
0.44031
0.42955
0.43542
0.4501
0.41977
0.41487
0.42466
0.40509
0.40509
0.4002
0.38454
0.37965
0.37965
0.36497
0.37476
0.37965
0.34442
0.35519
0.36986
0.38454
0.40998
0.42466
0.44521
0.46477
0.48043
0.49022
0.5
0.51468
0.52544
0.51957
0.51468
0.51957
0.51468
0.50978
0.51957
0.50978
0.50978
0.51468
0.51468
0.51957
0.51468
0.50489
0.49511
0.49511
0.49511
0.49511
0.5
0.49022
0.5
0.49511
0.5
0.49511
0.50489
0.50978
0.51468
0.50978
0.53033
0.54501
0.53523
0.53523
0.51468
0.49511
0.48532
0.48043
0.47456
0.48043
0.47456
0.46477
0.45499
0.45988
0.45499
0.46967
0.48532
0.47456
0.46967
0.46477
0.47456
0.47456
0.47456
0.47456
0.46967
0.48043
0.49022
0.49511
0.48532
0.45499
0.44521
0.49511
0.57045
0.58513
0.50489
0.44521
0.49511
0.54501
0.57045
0.58023
0.57045
0.58023
0.49022
0.40509
0.4002
0.41977
0.42955
0.42466
0.44031
0.44031
0.44521
0.44521
0.42466
0.42466
0.44031
0.43542
0.44031
0.42955
0.40998
0.40509
0.40509
0.4002
0.38943
0.38454
0.37476
0.37476
0.36008
0.35519
0.36986
0.37965
0.4002
0.42466
0.41487
0.42466
0.44521
0.46477
0.48043
0.5
0.5
0.50978
0.51468
0.51957
0.51957
0.53033
0.50978
0.50489
0.51468
0.50489
0.5
0.51468
0.51957
0.50978
0.50978
0.5
0.50489
0.5
0.50978
0.48043
0.50489
0.48532
0.48043
0.49022
0.5
0.5
0.5
0.50489
0.50489
0.52544
0.5499
0.54012
0.51468
0.50978
0.51468
0.48532
0.47456
0.46967
0.47456
0.45499
0.45499
0.46967
0.46967
0.47456
0.45988
0.4501
0.46477
0.47456
0.47456
0.48043
0.48532
0.47456
0.48043
0.48532
0.49022
0.49511
0.5
0.4501
0.42466
0.47456
0.54501
0.61057
0.55969
0.50489
0.46477
0.52544
0.55479
0.54012
0.56458
0.55479
0.58513
0.48532
0.42955
0.42466
0.44521
0.44031
0.4501
0.44031
0.44521
0.4501
0.44031
0.43542
0.44031
0.43542
0.44031
0.42466
0.42955
0.42466
0.41977
0.40509
0.40509
0.38943
0.38454
0.37476
0.37476
0.36497
0.36008
0.37476
0.37965
0.38943
0.40509
0.42466
0.43542
0.45499
0.47456
0.49511
0.5
0.50489
0.51957
0.53033
0.51957
0.52544
0.54012
0.51957
0.51468
0.51957
0.51468
0.51957
0.51957
0.51468
0.50978
0.51468
0.51468
0.53033
0.51957
0.50978
0.5
0.5
0.51468
0.49511
0.5
0.5
0.5
0.51468
0.53523
0.54501
0.55969
0.54012
0.52544
0.50489
0.5
0.49511
0.47456
0.46967
0.46967
0.47456
0.47456
0.46477
0.46477
0.47456
0.48043
0.49511
0.48043
0.47456
0.48043
0.48532
0.49511
0.49022
0.49511
0.5
0.49022
0.5
0.5
0.49022
0.4501
0.50489
0.54501
0.5998
0.5499
0.48532
0.46967
0.54012
0.57045
0.59002
0.61546
0.63503
0.6047
0.53523
0.46967
0.44031
0.43542
0.43542
0.44521
0.4501
0.44031
0.44521
0.44031
0.43542
0.44031
0.43542
0.44031
0.42466
0.42466
0.41487
0.42466
0.4002
0.38943
0.38454
0.35519
0.36008
0.35029
0.35519
0.36497
0.35519
0.36986
0.38454
0.42466
0.43542
0.44521
0.45988
0.48043
0.5
0.51468
0.52544
0.52544
0.53523
0.53523
0.53523
0.54501
0.51957
0.51957
0.53523
0.51957
0.51957
0.51468
0.52544
0.51957
0.51957
0.52544
0.51957
0.52544
0.51957
0.5
0.5
0.50489
0.5
0.50489
0.49511
0.5
0.51468
0.51957
0.53523
0.54012
0.55479
0.53033
0.51468
0.5
0.48043
0.47456
0.48532
0.47456
0.47456
0.46967
0.46967
0.46967
0.47456
0.48043
0.49022
0.49511
0.47456
0.48532
0.48043
0.49511
0.49022
0.5
0.48532
0.49022
0.5
0.50978
0.50489
0.46967
0.45499
0.52544
0.5998
0.61057
0.52544
0.46477
0.50978
0.55969
0.57534
0.61546
0.63992
0.65558
0.55479
0.46967
0.44031
0.44031
0.44031
0.4501
0.4501
0.44521
0.45499
0.4501
0.44521
0.4501
0.44521
0.44031
0.44031
0.42466
0.42466
0.40509
0.40509
0.4002
0.38454
0.38454
0.37476
0.36008
0.36008
0.36497
0.37965
0.3953
0.38454
0.40998
0.43542
0.4501
0.47456
0.48532
0.50489
0.52544
0.53033
0.51468
0.51957
0.51957
0.53033
0.51957
0.51468
0.51468
0.50978
0.51957
0.51957
0.51957
0.51468
0.51468
0.51957
0.51468
0.5
0.5
0.5
0.50978
0.5
0.5
0.5
0.50489
0.5
0.51468
0.51957
0.52544
0.54501
0.53523
0.54501
0.5499
0.53033
0.51957
0.50978
0.49511
0.5
0.49511
0.49022
0.48532
0.49022
0.47456
0.46967
0.48532
0.48043
0.48532
0.49022
0.5
0.50489
0.48043
0.49022
0.5
0.49511
0.49511
0.49511
0.50489
0.50978
0.49511
0.46477
0.47456
0.53033
0.5998
0.5499
0.49022
0.4501
0.53033
0.57045
0.59002
0.62035
0.64481
0.65558
0.53033
0.45499
0.43542
0.42466
0.44031
0.4501
0.44521
0.44521
0.44521
0.4501
0.4501
0.44031
0.43542
0.42955
0.42466
0.44521
0.40998
0.40509
0.4002
0.40509
0.38943
0.37965
0.37476
0.37476
0.36986
0.36497
0.36986
0.38454
0.41487
0.41977
0.44031
0.45499
0.46967
0.49511
0.50978
0.50978
0.51468
0.51957
0.51957
0.52544
0.53523
0.51957
0.51468
0.50978
0.51957
0.52544
0.51468
0.50978
0.51468
0.51957
0.50978
0.51468
0.50489
0.5
0.5
0.50489
0.49511
0.5
0.50489
0.5
0.50978
0.51957
0.5
0.51468
0.52544
0.54501
0.56458
0.53523
0.51468
0.50489
0.5
0.48532
0.48043
0.47456
0.46967
0.47456
0.47456
0.46967
0.46967
0.46477
0.47456
0.48532
0.47456
0.48043
0.46967
0.47456
0.48043
0.48043
0.49511
0.49511
0.49022
0.5
0.49511
0.45499
0.43542
0.49511
0.56458
0.59002
0.52544
0.45499
0.44521
0.5499
0.57045
0.58513
0.58023
0.59491
0.53523
0.45499
0.42466
0.42955
0.42466
0.44031
0.4501
0.46967
0.44031
0.44031
0.44521
0.44031
0.44521
0.4501
0.44521
0.42955
0.40998
0.41487
0.42466
0.40509
0.3953
0.38454
0.37965
0.37965
0.37965
0.38943
0.37965
0.37965
0.38454
0.40509
0.42466
0.4501
0.4501
0.46967
0.48043
0.50489
0.51468
0.51957
0.53033
0.50978
0.51468
0.52544
0.51957
0.51468
0.51957
0.50489
0.50978
0.51468
0.51957
0.51468
0.51468
0.51957
0.51957
0.50978
0.49511
0.5
0.50489
0.5
0.50489
0.49511
0.5
0.50489
0.50489
0.51468
0.5
0.54012
0.5499
0.54012
0.54501
0.53033
0.50978
0.50489
0.49511
0.48043
0.47456
0.48043
0.47456
0.46967
0.47456
0.45988
0.47456
0.48532
0.47456
0.47456
0.47456
0.47456
0.48532
0.49511
0.48532
0.49022
0.5
0.49022
0.49511
0.5
0.46967
0.44521
0.49511
0.55969
0.61057
0.5499
0.47456
0.45988
0.53033
0.5499
0.56458
0.57045
0.57045
0.53033
0.46477
0.41977
0.42466
0.43542
0.4501
0.44521
0.4501
0.43542
0.44521
0.4501
0.44031
0.46477
0.42466
0.42955
0.42466
0.41977
0.42466
0.41487
0.40509
0.4002
0.38454
0.37965
0.37965
0.37476
0.37965
0.36008
0.35519
0.36986
0.38943
0.41487
0.42955
0.43542
0.45499
0.47456
0.5
0.51468
0.51468
0.51957
0.51957
0.52544
0.53523
0.52544
0.51957
0.52544
0.53033
0.52544
0.53523
0.54501
0.51957
0.51468
0.51957
0.53033
0.50978
0.50489
0.5
0.50978
0.49022
0.49022
0.48532
0.50489
0.50489
0.5
0.50978
0.52544
0.53523
0.52544
0.53523
0.51468
0.50489
0.49511
0.48532
0.48043
0.47456
0.5
0.45988
0.4501
0.45499
0.46477
0.46967
0.47456
0.47456
0.48043
0.47456
0.47456
0.48532
0.50489
0.49022
0.47456
0.48043
0.49022
0.5
0.48532
0.46477
0.46967
0.50978
0.56458
0.59002
0.53523
0.46967
0.45499
0.54501
0.57045
0.59002
0.61057
0.62035
0.58023
0.5
0.4501
0.44031
0.4501
0.44031
0.4501
0.43542
0.44031
0.44521
0.44031
0.43542
0.44031
0.43542
0.42466
0.42466
0.42466
0.41487
0.40509
0.38454
0.37476
0.36497
0.35519
0.35519
0.36008
0.35519
0.34442
0.35519
0.36497
0.38454
0.4002
0.42955
0.44521
0.46477
0.47456
0.5
0.51468
0.51957
0.51957
0.53033
0.54012
0.51957
0.51957
0.52544
0.53033
0.52544
0.52544
0.51957
0.51468
0.51957
0.51468
0.51468
0.51957
0.5
0.50978
0.49022
0.49511
0.48532
0.49511
0.49022
0.49022
0.48532
0.5
0.49022
0.50489
0.51957
0.53523
0.52544
0.50978
0.5
0.49511
0.48043
0.47456
0.48043
0.48043
0.47456
0.47456
0.46967
0.45988
0.45988
0.46477
0.47456
0.48043
0.49022
0.48043
0.49022
0.47456
0.48532
0.49022
0.49511
0.49022
0.5
0.50489
0.49511
0.45499
0.44031
0.50978
0.59002
0.61546
0.52544
0.45499
0.44521
0.55479
0.58023
0.5998
0.62035
0.63503
0.56458
0.49022
0.43542
0.42466
0.42955
0.4501
0.4501
0.4501
0.44521
0.44521
0.44521
0.43542
0.44031
0.42955
0.42955
0.44521
0.41977
0.4002
0.4002
0.3953
0.37965
0.38943
0.36986
0.36986
0.36008
0.35519
0.36497
0.36986
0.37965
0.41487
0.42955
0.44521
0.46477
0.47456
0.5
0.5
0.50489
0.51468
0.50978
0.50489
0.51468
0.51957
0.51957
0.51468
0.51957
0.50978
0.51957
0.50489
0.50489
0.51957
0.51468
0.50978
0.51468
0.51957
0.51468
0.50978
0.51468
0.51468
0.5
0.50489
0.50978
0.50489
0.51468
0.50978
0.52544
0.51468
0.51957
0.54012
0.5499
0.53033
0.50978
0.5
0.48532
0.48532
0.49511
0.48043
0.47456
0.48043
0.48532
0.45988
0.46477
0.45988
0.47456
0.47456
0.48043
0.47456
0.48532
0.48043
0.48043
0.49022
0.50489
0.51468
0.5
0.49511
0.48043
0.4501
0.44521
0.53523
0.6047
0.61057
0.49511
0.44031
0.50978
0.57534
0.58513
0.6047
0.61546
0.62524
0.53523
0.46477
0.44521
0.44031
0.44521
0.4501
0.44521
0.44521
0.4501
0.4501
0.45499
0.45988
0.44031
0.42466
0.42466
0.42466
0.42955
0.41487
0.40998
0.3953
0.38454
0.37965
0.37965
0.36986
0.37476
0.36008
0.38454
0.37476
0.38943
0.40509
0.44031
0.45499
0.46967
0.49022
0.5
0.50978
0.51957
0.51957
0.52544
0.53033
0.53033
0.54501
0.53033
0.50978
0.49511
0.5
0.50978
0.50978
0.50978
0.50978
0.51468
0.50978
0.5
0.50489
0.5
0.5
0.5
0.51957
0.5
0.5
0.49511
0.50978
0.50489
0.51957
0.52544
0.54501
0.55969
0.5499
0.53523
0.51957
0.51957
0.5
0.49022
0.46967
0.47456
0.47456
0.48043
0.46477
0.45988
0.46967
0.47456
0.46967
0.48043
0.46967
0.47456
0.48043
0.48532
0.49022
0.47456
0.48043
0.48532
0.49511
0.49022
0.48043
0.45499
0.4501
0.50978
0.57534
0.5499
0.5
0.4501
0.50978
0.56458
0.57045
0.58023
0.58513
0.59491
0.5
0.42466
0.40998
0.42955
0.44031
0.44521
0.4501
0.45499
0.46477
0.4501
0.44521
0.43542
0.42955
0.44521
0.45499
0.42955
0.42466
0.41487
0.40509
0.40998
0.3953
0.3953
0.38943
0.37965
0.36986
0.37476
0.36986
0.37965
0.4002
0.41487
0.43542
0.4501
0.46477
0.47456
0.5
0.5
0.50978
0.51957
0.52544
0.51468
0.51468
0.51957
0.51468
0.51957
0.52544
0.52544
0.51957
0.51957
0.51468
0.51957
0.51957
0.50978
0.5
0.50978
0.50489
0.49511
0.5
0.5
0.49511
0.49511
0.5
0.51468
0.5
0.5
0.50489
0.51957
0.54501
0.54012
0.51957
0.50489
0.5
0.49511
0.48043
0.48043
0.45499
0.4501
0.46477
0.46967
0.45499
0.4501
0.46967
0.46477
0.47456
0.48532
0.47456
0.46477
0.47456
0.47456
0.48532
0.48532
0.48532
0.48043
0.49511
0.47456
0.44521
0.48532
0.55479
0.59491
0.5499
0.48532
0.44521
0.51957
0.5499
0.54501
0.55479
0.55969
0.56458
0.47456
0.41977
0.40998
0.42955
0.44031
0.44521
0.44031
0.4501
0.42955
0.43542
0.44521
0.44031
0.43542
0.43542
0.42955
0.42955
0.41487
0.40998
0.40998
0.40509
0.3953
0.38454
0.37965
0.36497
0.36008
0.36008
0.37476
0.38454
0.3953
0.41487
0.43542
0.44521
0.45988
0.47456
0.47456
0.50489
0.51468
0.51957
0.52544
0.51468
0.51957
0.51957
0.51468
0.51957
0.51468
0.51957
0.52544
0.51957
0.50978
0.50489
0.50978
0.50489
0.50489
0.50489
0.49511
0.5
0.51957
0.49511
0.49022
0.49511
0.49022
0.49511
0.50978
0.51957
0.54012
0.54012
0.53033
0.51468
0.50489
0.49511
0.48043
0.47456
0.46477
0.45499
0.45988
0.45499
0.45988
0.45988
0.47456
0.48043
0.47456
0.48043
0.48043
0.47456
0.48043
0.47456
0.48043
0.48043
0.48532
0.49511
0.5
0.5
0.47456
0.44031
0.49022
0.55479
0.59491
0.53033
0.45988
0.44521
0.55479
0.57045
0.58513
0.61546
0.63503
0.58513
0.50489
0.44521
0.43542
0.43542
0.44031
0.44031
0.44031
0.44031
0.4501
0.43542
0.44521
0.42955
0.42466
0.42466
0.42466
0.41977
0.40998
0.40509
0.4002
0.38454
0.37965
0.36497
0.36497
0.35519
0.35519
0.34442
0.35029
0.36497
0.37965
0.40509
0.41977
0.4501
0.46477
0.49022
0.5
0.50489
0.51957
0.52544
0.51957
0.51468
0.51957
0.53033
0.51957
0.52544
0.52544
0.51957
0.51957
0.51468
0.51468
0.51957
0.50489
0.50978
0.51468
0.5
0.5
0.50489
0.49022
0.49022
0.49511
0.5
0.50489
0.49511
0.51468
0.52544
0.54012
0.53033
0.52544
0.5
0.49511
0.47456
0.46967
0.48532
0.46477
0.45499
0.45499
0.45988
0.46477
0.45988
0.47456
0.47456
0.47456
0.48532
0.47456
0.47456
0.48532
0.49511
0.47456
0.48043
0.49022
0.49511
0.5
0.5
0.46477
0.44521
0.52544
0.59002
0.61057
0.52544
0.43542
0.47456
0.54012
0.55479
0.59491
0.62035
0.63503
0.55479
0.45988
0.43542
0.44031
0.42955
0.42466
0.42955
0.42955
0.44031
0.44521
0.44031
0.43542
0.42466
0.42466
0.41977
0.40998
0.41487
0.4002
0.3953
0.38943
0.3953
0.37965
0.36497
0.36008
0.35519
0.35029
0.36497
0.37965
0.38943
0.40509
0.42466
0.44521
0.46967
0.47456
0.49511
0.5
0.50489
0.50978
0.51957
0.51957
0.51957
0.52544
0.51468
0.50489
0.51468
0.52544
0.5
0.49511
0.5
0.5
0.50489
0.50978
0.49511
0.5
0.5
0.49511
0.50978
0.50489
0.49022
0.48043
0.49511
0.5
0.5
0.50978
0.51957
0.53523
0.54501
0.54501
0.53033
0.49022
0.48532
0.48043
0.48043
0.47456
0.46967
0.45988
0.45988
0.46477
0.46477
0.46477
0.46477
0.47456
0.47456
0.47456
0.47456
0.48043
0.48043
0.48532
0.48043
0.48043
0.48532
0.49511
0.5
0.49022
0.44521
0.42955
0.52544
0.59002
0.54012
0.48532
0.43542
0.50978
0.54501
0.57534
0.6047
0.63014
0.5998
0.53523
0.45499
0.43542
0.42466
0.41977
0.42466
0.43542
0.42466
0.43542
0.44521
0.4501
0.42466
0.42466
0.42466
0.42466
0.40998
0.41487
0.3953
0.3953
0.38454
0.37476
0.36986
0.36008
0.36008
0.35519
0.36008
0.37476
0.38943
0.4002
0.40509
0.41977
0.4501
0.47456
0.48043
0.49511
0.50978
0.50978
0.51468
0.51468
0.50978
0.51957
0.51957
0.50978
0.5
0.50489
0.50978
0.51957
0.5
0.50489
0.5
0.50489
0.50978
0.48532
0.49022
0.48532
0.48043
0.49022
0.48043
0.48532
0.49022
0.5
0.50489
0.51468
0.52544
0.53033
0.54501
0.53523
0.51957
0.5
0.5
0.48043
0.48043
0.46967
0.46477
0.46477
0.46967
0.47456
0.46477
0.4501
0.46967
0.46477
0.46967
0.47456
0.46967
0.47456
0.48043
0.48532
0.47456
0.48043
0.47456
0.49022
0.49511
0.46967
0.42955
0.45988
0.51468
0.58513
0.54501
0.49022
0.44521
0.50978
0.55969
0.54501
0.54501
0.55479
0.57045
0.47456
0.40509
0.41487
0.43542
0.44031
0.4501
0.43542
0.4501
0.44031
0.42466
0.43542
0.43542
0.4501
0.44031
0.42955
0.43542
0.42466
0.41487
0.40998
0.41977
0.38454
0.38943
0.37965
0.36497
0.36497
0.36008
0.36497
0.37965
0.38454
0.40998
0.42955
0.44031
0.4501
0.46967
0.47456
0.49511
0.5
0.5
0.51957
0.52544
0.53033
0.5
0.51468
0.50489
0.50978
0.51957
0.51957
0.50978
0.50489
0.50978
0.51957
0.50489
0.49022
0.5
0.50489
0.49022
0.49022
0.5
0.49022
0.48532
0.51468
0.49511
0.5
0.51957
0.52544
0.54012
0.52544
0.5
0.49022
0.49022
0.48532
0.46967
0.45499
0.45988
0.46477
0.45988
0.4501
0.4501
0.45988
0.46967
0.48532
0.47456
0.48043
0.48532
0.47456
0.48043
0.48043
0.48532
0.49022
0.48532
0.5
0.47456
0.45499
0.44031
0.51468
0.58023
0.5998
0.53033
0.45499
0.44031
0.51957
0.54501
0.5499
0.54501
0.55969
0.51468
0.45499
0.41977
0.41487
0.41977
0.44521
0.4501
0.42466
0.42466
0.43542
0.44031
0.43542
0.44031
0.44521
0.42466
0.41487
0.40998
0.40509
0.40998
0.38943
0.3953
0.37965
0.36986
0.36986
0.37476
0.34442
0.35029
0.36008
0.36986
0.38943
0.40509
0.41977
0.44031
0.44521
0.46967
0.49022
0.49511
0.5
0.5
0.50489
0.51468
0.49511
0.5
0.50489
0.5
0.51957
0.50978
0.50978
0.51957
0.52544
0.50978
0.50489
0.51468
0.51957
0.50489
0.50978
0.50978
0.51468
0.50489
0.50978
0.51957
0.50978
0.54012
0.54012
0.54501
0.53523
0.53033
0.50978
0.5
0.49511
0.49022
0.48043
0.49022
0.47456
0.46967
0.46477
0.46967
0.48043
0.48532
0.47456
0.48532
0.49022
0.48043
0.49022
0.48532
0.49022
0.48532
0.48043
0.49022
0.50978
0.50489
0.48532
0.4501
0.44031
0.52544
0.59002
0.5998
0.50978
0.44521
0.5
0.55969
0.58513
0.61546
0.62035
0.63992
0.54501
0.46967
0.42955
0.42466
0.42466
0.43542
0.43542
0.43542
0.44031
0.42466
0.42955
0.42466
0.42955
0.43542
0.44521
0.40509
0.40998
0.4002
0.3953
0.38943
0.37476
0.36986
0.35519
0.35519
0.35519
0.36008
0.37965
0.35519
0.36986
0.38943
0.42466
0.43542
0.45499
0.46477
0.49022
0.5
0.51957
0.5
0.5
0.51468
0.51957
0.52544
0.50489
0.5
0.51468
0.51957
0.50489
0.51957
0.5
0.5
0.50978
0.49022
0.49022
0.48532
0.49511
0.50978
0.49511
0.51468
0.48532
0.47456
0.48532
0.5
0.50978
0.52544
0.54012
0.54501
0.53523
0.52544
0.49022
0.47456
0.46967
0.47456
0.47456
0.48043
0.46477
0.46967
0.47456
0.45499
0.47456
0.47456
0.48532
0.48043
0.47456
0.47456
0.48532
0.48043
0.5
0.48532
0.47456
0.49511
0.5
0.50489
0.46967
0.44521
0.50978
0.58513
0.5998
0.50978
0.44521
0.49022
0.54012
0.55969
0.59002
0.61546
0.63014
0.55479
0.47456
0.4501
0.46967
0.44521
0.43542
0.42466
0.41977
0.42955
0.43542
0.44031
0.42955
0.43542
0.42466
0.44521
0.4501
0.40509
0.4002
0.38454
0.37965
0.37965
0.36986
0.36497
0.37476
0.37965
0.35519
0.35519
0.36986
0.3953
0.40998
0.42466
0.4501
0.45499
0.49511
0.50489
0.50978
0.5
0.50978
0.51957
0.51957
0.50978
0.51468
0.50978
0.51957
0.51468
0.51957
0.52544
0.51468
0.51957
0.5
0.5
0.50489
0.49511
0.49511
0.49022
0.49511
0.5
0.5
0.49511
0.5
0.5
0.49511
0.50978
0.51957
0.52544
0.51957
0.54501
0.51957
0.50978
0.5
0.49511
0.49022
0.48532
0.47456
0.46477
0.45988
0.47456
0.46477
0.46967
0.4501
0.46477
0.47456
0.47456
0.47456
0.47456
0.48532
0.48532
0.5
0.49511
0.50978
0.48532
0.48043
0.48532
0.44521
0.42955
0.50489
0.58513
0.59491
0.50978
0.4501
0.44521
0.53523
0.57045
0.5998
0.61057
0.62524
0.56458
0.46967
0.44521
0.43542
0.42955
0.44521
0.43542
0.4501
0.44521
0.4501
0.43542
0.44031
0.42466
0.42955
0.42466
0.41487
0.42466
0.40998
0.4002
0.38943
0.37965
0.37965
0.37965
0.36008
0.35029
0.35519
0.36986
0.37965
0.37965
0.40509
0.42466
0.44521
0.45988
0.49022
0.49511
0.48532
0.49511
0.50489
0.51957
0.52544
0.50978
0.51468
0.51468
0.51468
0.51957
0.53033
0.5
0.5
0.5
0.5
0.50978
0.51468
0.49511
0.49022
0.5
0.5
0.49022
0.47456
0.47456
0.48532
0.49511
0.50489
0.50489
0.5
0.51468
0.51957
0.54012
0.54501
0.52544
0.51468
0.49511
0.5
0.46967
0.48043
0.46477
0.45499
0.4501
0.4501
0.46967
0.46477
0.46967
0.45499
0.45988
0.46967
0.46477
0.47456
0.46477
0.48532
0.47456
0.46967
0.47456
0.49022
0.49511
0.48043
0.4501
0.45499
0.49511
0.56458
0.57045
0.50978
0.44521
0.49022
0.54501
0.55969
0.54501
0.57534
0.58513
0.46967
0.41487
0.40509
0.42466
0.42466
0.44521
0.43542
0.4501
0.45988
0.46967
0.42955
0.43542
0.42955
0.42466
0.42466
0.43542
0.41977
0.42466
0.43542
0.40509
0.4002
0.38943
0.37476
0.37476
0.37965
0.36986
0.36497
0.38943
0.38454
0.40509
0.42955
0.44031
0.45988
0.47456
0.5
0.5
0.5
0.5
0.51468
0.54012
0.51957
0.50978
0.50978
0.50978
0.53033
0.51468
0.51957
0.52544
0.53523
0.52544
0.53523
0.49511
0.51468
0.5
0.5
0.49511
0.50489
0.49511
0.5
0.51468
0.51957
0.50489
0.51468
0.52544
0.52544
0.54501
0.52544
0.51468
0.5
0.49022
0.49511
0.48043
0.46967
0.45988
0.47456
0.45988
0.4501
0.46967
0.47456
0.47456
0.46477
0.46967
0.48043
0.49022
0.46967
0.47456
0.48043
0.47456
0.49022
0.48043
0.5
0.49022
0.45988
0.4501
0.50978
0.59491
0.6047
0.51468
0.44031
0.48043
0.52544
0.54501
0.55479
0.56458
0.58023
0.51468
0.43542
0.40998
0.43542
0.42466
0.44031
0.42955
0.4501
0.45499
0.45988
0.43542
0.44031
0.42955
0.44521
0.43542
0.42466
0.42466
0.42466
0.42466
0.41977
0.3953
0.37965
0.37965
0.37476
0.37965
0.4002
0.36497
0.37476
0.38454
0.40509
0.41977
0.4501
0.45988
0.4501
0.48043
0.5
0.51468
0.51957
0.53033
0.50489
0.51957
0.51957
0.53523
0.51957
0.53033
0.51957
0.51957
0.52544
0.52544
0.52544
0.51957
0.50978
0.53523
0.50978
0.49511
0.5
0.5
0.50489
0.51957
0.52544
0.5
0.51468
0.51957
0.51468
0.54501
0.52544
0.51468
0.50489
0.49511
0.49022
0.48043
0.46967
0.46477
0.47456
0.46967
0.46477
0.46967
0.47456
0.48043
0.47456
0.46967
0.46477
0.48532
0.49511
0.48043
0.47456
0.48043
0.49511
0.48532
0.48043
0.5
0.49022
0.45988
0.45499
0.51957
0.59002
0.59491
0.5
0.4501
0.5
0.5499
0.57045
0.61057
0.62524
0.63014
0.55969
0.48043
0.43542
0.42955
0.4501
0.45499
0.43542
0.44521
0.43542
0.4501
0.44031
0.4501
0.42466
0.42955
0.42955
0.42466
0.42955
0.42466
0.40509
0.38943
0.38454
0.37476
0.38454
0.36008
0.34442
0.33953
0.37476
0.36986
0.3953
0.40509
0.42466
0.44521
0.46477
0.49022
0.5
0.51957
0.5
0.51468
0.50978
0.52544
0.52544
0.52544
0.54501
0.52544
0.50978
0.51468
0.51957
0.51957
0.5
0.5
0.50489
0.51957
0.51957
0.50978
0.49511
0.5
0.5
0.5
0.48532
0.49511
0.5
0.50489
0.51957
0.53523
0.5499
0.57045
0.55479
0.51468
0.5
0.49511
0.5
0.47456
0.47456
0.48043
0.47456
0.47456
0.49022
0.47456
0.46967
0.47456
0.48043
0.46477
0.48532
0.48043
0.48043
0.48532
0.5
0.49511
0.49022
0.51468
0.5
0.5
0.48532
0.44521
0.46967
0.5499
0.62035
0.55479
0.46967
0.44521
0.51957
0.57045
0.58023
0.59002
0.62035
0.62524
0.51957
0.4501
0.44521
0.4501
0.4501
0.45499
0.45988
0.44521
0.4501
0.45499
0.44031
0.42955
0.43542
0.44031
0.44521
0.42466
0.42466
0.40998
0.4002
0.40509
0.37965
0.36497
0.36986
0.36008
0.36986
0.37476
0.40509
0.40509
0.38943
0.40998
0.44031
0.45499
0.4501
0.48043
0.50978
0.51957
0.50978
0.51957
0.52544
0.53033
0.51957
0.51957
0.53523
0.54012
0.50978
0.50489
0.51957
0.52544
0.51468
0.50489
0.50489
0.50489
0.51468
0.50978
0.50978
0.51957
0.51468
0.48532
0.49022
0.5
0.49511
0.5
0.50978
0.51957
0.54012
0.54501
0.5499
0.5499
0.53033
0.51468
0.53523
0.47456
0.47456
0.48043
0.47456
0.47456
0.47456
0.47456
0.47456
0.48532
0.49022
0.48532
0.48532
0.48043
