0.49022
0.49022
0.49022
0.49022
0.49022
0.49022
0.49511
0.50489
0.53523
0.57534
0.59491
0.56458
0.46967
0.36008
0.33464
0.4002
0.46477
0.5
0.50489
0.50978
0.50978
0.51468
0.51468
0.51957
0.52544
0.53033
0.53523
0.53523
0.53523
0.54012
0.5499
0.55479
0.56458
0.57534
0.58513
0.59002
0.59491
0.5998
0.5998
0.58513
0.57534
0.55479
0.53033
0.51468
0.50489
0.49511
0.49022
0.48532
0.48532
0.48043
0.47456
0.46967
0.46477
0.46967
0.46967
0.47456
0.47456
0.47456
0.47456
0.48043
0.48532
0.48532
0.48532
0.49022
0.49022
0.49022
0.49022
0.49022
0.49022
0.49022
0.49022
0.49022
0.48532
0.48532
0.48532
0.48532
0.49022
0.49022
0.49511
0.49511
0.50489
0.50489
0.5
0.49022
0.49022
0.49022
0.49022
0.48532
0.48532
0.48532
0.48043
0.48043
0.48043
0.48532
0.50978
0.5499
0.58023
0.56458
0.48043
0.37476
0.32485
0.36497
0.43542
0.48532
0.50489
0.50978
0.50978
0.50978
0.50978
0.51468
0.51468
0.51957
0.52544
0.53033
0.53523
0.54012
0.54012
0.5499
0.55479
0.55969
0.57534
0.58023
0.58513
0.58513
0.58513
0.58023
0.57534
0.55969
0.54501
0.53033
0.50978
0.5
0.49022
0.48532
0.48532
0.48532
0.48043
0.48043
0.48043
0.48043
0.48532
0.48532
0.48043
0.48043
0.48532
0.48532
0.48532
0.48043
0.48043
0.48043
0.48043
0.48532
0.48532
0.48532
0.48532
0.48532
0.48532
0.48043
0.48043
0.48043
0.48043
0.48043
0.48043
0.48532
0.49022
0.49511
0.5
0.50489
0.50489
0.49511
0.48532
0.48532
0.48532
0.48532
0.48532
0.48043
0.48043
0.48043
0.48043
0.48043
0.5
0.53523
0.56458
0.57534
0.50489
0.40998
0.35029
0.34442
0.41487
0.45988
0.48532
0.49511
0.49511
0.5
0.50489
0.50489
0.50489
0.50978
0.50978
0.51468
0.51957
0.52544
0.53033
0.53523
0.54012
0.5499
0.55479
0.55969
0.57045
0.57045
0.57045
0.57045
0.55969
0.5499
0.53523
0.51957
0.50978
0.5
0.49511
0.49022
0.48532
0.48532
0.48532
0.48043
0.48043
0.48043
0.48043
0.48043
0.48532
0.48532
0.48532
0.48532
0.48532
0.48532
0.48532
0.48532
0.48532
0.48532
0.48532
0.48532
0.48532
0.48532
0.48532
0.48532
0.48532
0.48532
0.48532
0.48532
0.48532
0.48532
0.49022
0.49511
0.5
0.50489
0.49511
0.49022
0.49022
0.49022
0.49022
0.48532
0.48532
0.48532
0.48532
0.48532
0.48532
0.49022
0.51468
0.5499
0.57534
0.55969
0.48532
0.38943
0.35029
0.37965
0.43542
0.48043
0.49511
0.50489
0.50489
0.50978
0.51468
0.51468
0.51468
0.51468
0.51957
0.52544
0.52544
0.53033
0.54012
0.54501
0.5499
0.55969
0.57045
0.57534
0.58023
0.58023
0.58023
0.57534
0.56458
0.5499
0.53523
0.51957
0.50489
0.49511
0.49022
0.48532
0.47456
0.47456
0.48043
0.48043
0.48532
0.48532
0.48532
0.48532
0.48532
0.48532
0.48532
0.48532
0.48532
0.48532
0.48532
0.49022
0.49022
0.49022
0.49022
0.49022
0.49022
0.49022
0.49022
0.48532
0.48532
0.48532
0.48532
0.48532
0.49022
0.49511
0.49511
0.49511
0.5
0.50489
0.50489
0.49511
0.49511
0.49511
0.49511
0.49022
0.49022
0.49022
0.49022
0.49022
0.49022
0.49022
0.50489
0.53523
0.57534
0.58513
0.52544
0.41487
0.32485
0.31507
0.41487
0.47456
0.50489
0.51468
0.51468
0.51468
0.51957
0.51957
0.51957
0.52544
0.53033
0.53523
0.53523
0.54012
0.54501
0.5499
0.55969
0.57534
0.58513
0.59491
0.5998
0.6047
0.5998
0.59491
0.58513
0.57534
0.55479
0.53523
0.51468
0.50489
0.49022
0.48043
0.47456
0.47456
0.46967
0.46967
0.46967
0.47456
0.47456
0.47456
0.47456
0.47456
0.47456
0.47456
0.47456
0.47456
0.48043
0.48043
0.48043
0.48043
0.48043
0.48043
0.48043
0.48532
0.48532
0.48532
0.48532
0.48532
0.48532
0.48532
0.48532
0.48532
0.48532
0.49022
0.49511
0.50489
0.50489
0.49511
0.49022
0.49022
0.48532
0.48532
0.48532
0.48532
0.48532
0.48043
0.47456
0.47456
0.49022
0.51957
0.56458
0.58513
0.55479
0.45499
0.36497
0.34442
0.38943
0.4501
0.48532
0.49511
0.49511
0.5
0.50489
0.50489
0.50978
0.50978
0.51468
0.51468
0.52544
0.52544
0.53033
0.53033
0.54012
0.54501
0.55479
0.55969
0.57045
0.57534
0.58023
0.57534
0.57045
0.55969
0.5499
0.53033
0.51468
0.50489
0.49022
0.48532
0.48532
0.48532
0.48043
0.48043
0.48043
0.48532
0.48532
0.48532
0.48532
0.48532
0.48532
0.48532
0.48532
0.49022
0.49022
0.49022
0.49022
0.49022
0.49022
0.49022
0.49022
0.49022
0.48532
0.48532
0.48532
0.48532
0.48532
0.49022
0.49022
0.49022
0.49511
0.49511
0.50489
0.50978
0.50978
0.50489
0.49511
0.49022
0.49022
0.49022
0.48532
0.48532
0.48532
0.48532
0.48532
0.48532
0.49511
0.52544
0.55969
0.58023
0.54012
0.45499
0.36986
0.35029
0.4002
0.45499
0.49022
0.5
0.50489
0.50489
0.50978
0.50978
0.51468
0.51957
0.51957
0.51468
0.50978
0.51468
0.52544
0.53033
0.53523
0.54501
0.55479
0.55969
0.56458
0.57045
0.57534
0.57534
0.57045
0.55969
0.54501
0.53033
0.51468
0.5
0.48532
0.48043
0.47456
0.47456
0.47456
0.47456
0.47456
0.47456
0.47456
0.47456
0.47456
0.48043
0.48043
0.48043
0.48532
0.48532
0.48532
0.48532
0.48532
0.48043
0.48043
0.48043
0.48043
0.48043
0.48043
0.48532
0.48532
0.49022
0.49022
0.49022
0.49022
0.49022
0.49511
0.49511
0.50489
0.50489
0.50489
0.49511
0.49022
0.49022
0.48532
0.48532
0.48532
0.48043
0.48043
0.48532
0.48532
0.48532
0.5
0.53033
0.56458
0.58023
0.54501
0.4501
0.35029
0.32975
0.38943
0.4501
0.48532
0.49511
0.49511
0.5
0.50489
0.50489
0.50489
0.50489
0.50978
0.51468
0.51468
0.51957
0.52544
0.53523
0.54012
0.5499
0.55969
0.57045
0.57534
0.58023
0.58513
0.58023
0.57534
0.56458
0.5499
0.53033
0.51468
0.50489
0.49022
0.48532
0.48043
0.47456
0.48043
0.48043
0.48043
0.47456
0.47456
0.47456
0.47456
0.47456
0.48043
0.48532
0.48532
0.48532
0.48532
0.48532
0.48532
0.48532
0.48532
0.48532
0.49022
0.49022
0.49022
0.49022
0.49022
0.49022
0.49022
0.49022
0.48532
0.48532
0.49022
0.49511
0.49511
0.50489
0.50489
0.49511
0.49022
0.48532
0.48532
0.48532
0.48532
0.48532
0.48532
0.48532
0.48532
0.48532
0.49511
0.53033
0.57045
0.58023
0.53033
0.41977
0.32485
0.31018
0.3953
0.46477
0.49511
0.50489
0.50978
0.50978
0.51468
0.51468
0.51468
0.51468
0.51957
0.51957
0.52544
0.53033
0.53523
0.54012
0.5499
0.55969
0.57045
0.58023
0.58513
0.59002
0.59002
0.58513
0.58023
0.57045
0.5499
0.53033
0.50978
0.49511
0.49022
0.48532
0.48043
0.47456
0.47456
0.47456
0.47456
0.47456
0.47456
0.47456
0.48043
0.48043
0.48043
0.48043
0.48043
0.48043
0.48043
0.48532
0.48532
0.48532
0.48532
0.48532
0.48043
0.48043
0.48043
0.48043
0.48043
0.48532
0.48532
0.48532
0.48532
0.48532
0.49022
0.49022
0.49511
0.5
0.50489
0.49511
0.49022
0.48532
0.48532
0.48043
0.47456
0.47456
0.47456
0.48043
0.48532
0.48532
0.5
0.53033
0.56458
0.57045
0.51468
0.41977
0.35029
0.36008
0.40998
0.46477
0.49022
0.5
0.50489
0.50489
0.50978
0.50978
0.50978
0.51468
0.51468
0.51468
0.51957
0.52544
0.53033
0.53523
0.54012
0.5499
0.55969
0.56458
0.57045
0.57534
0.57534
0.57045
0.55969
0.55479
0.54012
0.52544
0.50978
0.49511
0.49022
0.48532
0.48532
0.48532
0.48043
0.48043
0.48532
0.48532
0.48043
0.48043
0.48043
0.48043
0.48532
0.48532
0.48532
0.48043
0.48043
0.48043
0.48043
0.48043
0.48043
0.48043
0.48532
0.48532
0.48532
0.48043
0.48043
0.48043
0.47456
0.47456
0.47456
0.48532
0.49022
0.49511
0.5
0.5
0.49511
0.49022
0.49022
0.48532
0.48532
0.48043
0.47456
0.47456
0.47456
0.47456
0.48043
0.49022
0.51468
0.5499
0.57534
0.55479
0.46967
0.37476
0.35029
0.38454
0.44521
0.48043
0.49511
0.50489
0.50489
0.50978
0.50978
0.51468
0.51468
0.51468
0.51957
0.52544
0.52544
0.53033
0.53523
0.54012
0.54501
0.55479
0.55969
0.57045
0.57534
0.57534
0.57534
0.57045
0.55969
0.54501
0.53033
0.51468
0.50489
0.49511
0.49022
0.48532
0.48043
0.48043
0.47456
0.47456
0.48043
0.48532
0.48532
0.48532
0.48532
0.48532
0.48532
0.48532
0.48532
0.48532
0.48532
0.49022
0.49022
0.49022
0.49022
0.49022
0.49022
0.49022
0.49022
0.49022
0.49022
0.49022
0.49022
0.49022
0.49022
0.49511
0.5
0.50489
0.50489
0.50489
0.5
0.49511
0.49511
0.49022
0.49022
0.49022
0.49022
0.49022
0.49511
0.49511
0.5
0.51957
0.55969
0.59002
0.59491
0.49511
0.37965
0.31996
0.36986
0.44521
0.49022
0.50978
0.51468
0.51468
0.52544
0.52544
0.52544
0.52544
0.53033
0.53033
0.53523
0.54012
0.54501
0.5499
0.55969
0.56458
0.57534
0.58023
0.59002
0.59491
0.5998
0.5998
0.59491
0.58513
0.57045
0.5499
0.53033
0.51468
0.50978
0.5
0.49511
0.49511
0.49022
0.49022
0.49022
0.49022
0.49022
0.49022
0.49022
0.49022
0.49022
0.49022
0.48532
0.48532
0.49022
0.49022
0.49022
0.49022
0.49022
0.49022
0.49022
0.49022
0.49022
0.49022
0.49022
0.49022
0.49022
0.49022
0.49022
0.49022
0.49511
0.49511
0.50489
0.50978
0.50489
0.50489
0.49511
0.49022
0.49022
0.49022
0.49022
0.49022
0.48532
0.48532
0.48532
0.48532
0.50489
0.53523
0.57534
0.58513
0.54012
0.43542
0.34442
0.33464
0.40998
0.46477
0.49511
0.50489
0.50489
0.50489
0.50978
0.51468
0.51468
0.51957
0.52544
0.52544
0.53033
0.53033
0.53033
0.53523
0.54501
0.55479
0.56458
0.57534
0.58023
0.58023
0.58513
0.58023
0.57534
0.56458
0.5499
0.53523
0.51468
0.50489
0.49022
0.48532
0.48532
0.48532
0.48532
0.48043
0.48043
0.48043
0.48043
0.48043
0.48043
0.48043
0.48532
0.48532
0.49022
0.48532
0.49022
0.49022
0.49022
0.48532
0.48532
0.48532
0.48532
0.48532
0.49022
0.49022
0.49022
0.49022
0.49022
0.49022
0.49511
0.49511
0.50489
0.50978
0.50978
0.50978
0.50489
0.5
0.49511
0.49511
0.49511
0.49511
0.49022
0.49022
0.49022
0.49022
0.49511
0.50489
0.53523
0.57045
0.58513
0.54501
0.4501
0.36986
0.35519
0.40998
0.46477
0.49511
0.50489
0.50978
0.51468
0.51468
0.51468
0.51957
0.52544
0.52544
0.52544
0.52544
0.53033
0.53523
0.54012
0.54501
0.55479
0.55969
0.57045
0.57534
0.57534
0.58023
0.57534
0.57045
0.55969
0.5499
0.53523
0.51957
0.50978
0.5
0.49022
0.48532
0.48532
0.48532
0.49022
0.49022
0.49022
0.49022
0.49022
0.49022
0.49022
0.49022
0.49022
0.49022
0.49022
0.49022
0.49022
0.49511
0.49511
0.49511
0.49511
0.49511
0.49511
0.49511
0.49511
0.49511
0.5
0.49511
0.49511
0.49511
0.50489
0.50489
0.50489
0.51468
0.51468
0.50978
0.50489
0.50489
0.5
0.49511
0.49511
0.49022
0.49022
0.49022
0.49022
0.49022
0.5
0.52544
0.55969
0.59002
0.57534
0.5
0.4002
0.35519
0.37965
0.44031
0.48532
0.50489
0.50978
0.51468
0.51468
0.51468
0.51468
0.51468
0.51468
0.51957
0.52544
0.53033
0.53523
0.54012
0.54501
0.5499
0.55969
0.57045
0.57534
0.58513
0.59002
0.58513
0.58023
0.57534
0.55969
0.5499
0.53523
0.51468
0.50489
0.49511
0.49022
0.48532
0.48532
0.48532
0.48532
0.48532
0.48532
0.48532
0.48532
0.48532
0.49022
0.49022
0.49022
0.49022
0.49511
0.49511
0.49511
0.49022
0.49022
0.49022
0.49511
0.49511
0.49511
0.49511
0.49511
0.49511
0.49022
0.49511
0.49511
0.49511
0.5
0.50489
0.50978
0.50978
0.51468
0.50489
0.5
0.49511
0.49022
0.49511
0.49511
0.49022
0.49022
0.48532
0.48532
0.48532
0.49511
0.50978
0.5499
0.58513
0.59002
0.51468
0.4002
0.31996
0.31507
0.42466
0.48043
0.50489
0.50978
0.50978
0.51468
0.51468
0.51957
0.52544
0.52544
0.52544
0.53033
0.53523
0.54012
0.5499
0.5499
0.55479
0.57045
0.58023
0.59002
0.59491
0.5998
0.6047
0.5998
0.58513
0.57045
0.5499
0.53033
0.51468
0.50489
0.49022
0.48532
0.48043
0.48043
0.48043
0.48043
0.48043
0.48532
0.49022
0.49022
0.49022
0.49022
0.48532
0.48532
0.49022
0.49022
0.49022
0.49022
0.48532
0.48532
0.48532
0.48532
0.49022
0.49022
0.48532
0.48532
0.48532
0.49022
0.49022
0.49022
0.49022
0.49022
0.49511
0.49511
0.50489
0.50978
0.50489
0.49511
0.49022
0.49022
0.48532
0.48532
0.48532
0.48532
0.49022
0.48532
0.48532
0.49022
0.51957
0.55479
0.58023
0.55969
0.48043
0.38454
0.34442
0.37965
0.43542
0.48043
0.49511
0.49511
0.5
0.50489
0.50489
0.50978
0.50978
0.51468
0.51468
0.51957
0.52544
0.53033
0.53523
0.53523
0.54012
0.55479
0.55969
0.56458
0.57045
0.57534
0.57534
0.57045
0.55969
0.5499
0.53523
0.51957
0.50489
0.49511
0.49022
0.48532
0.48532
0.48043
0.48532
0.48532
0.48043
0.48043
0.48043
0.48043
0.48043
0.48532
0.48532
0.48532
0.48532
0.48532
0.48532
0.48532
0.48532
0.48532
0.48532
0.48532
0.48532
0.48532
0.48532
0.48532
0.49022
0.49022
0.49022
0.49022
0.49022
0.49511
0.49511
0.50489
0.50489
0.50489
0.49511
0.49511
0.49022
0.49022
0.48532
0.48532
0.48043
0.48043
0.48532
0.48532
0.48532
0.50489
0.53523
0.57045
0.58023
0.53033
0.43542
0.36008
0.35519
0.40998
0.45988
0.48532
0.49511
0.49511
0.5
0.50489
0.50489
0.50978
0.50978
0.51468
0.51468
0.51957
0.52544
0.53033
0.53523
0.54012
0.5499
0.55969
0.57045
0.57045
0.57534
0.57534
0.57045
0.56458
0.55479
0.54012
0.53033
0.51468
0.50489
0.49511
0.49022
0.48532
0.48532
0.48532
0.48532
0.48532
0.48532
0.48532
0.48532
0.48532
0.48532
0.48532
0.48532
0.48532
0.48532
0.48532
0.49022
0.49022
0.49022
0.49022
0.49022
0.49022
0.49022
0.49022
0.49022
0.49022
0.49022
0.49022
0.49022
0.49022
0.49022
0.49511
0.5
0.50978
0.50978
0.50489
0.5
0.49511
0.49511
0.49022
0.49022
0.48532
0.48532
0.48532
0.48532
0.49022
0.49511
0.51957
0.55969
0.58513
0.57045
0.48532
0.37476
0.32975
0.36986
0.43542
0.48043
0.49511
0.50489
0.50489
0.50978
0.51468
0.51468
0.51468
0.51957
0.52544
0.53033
0.53033
0.53523
0.53523
0.54012
0.5499
0.55969
0.57045
0.57534
0.58023
0.58513
0.58513
0.58023
0.57045
0.55969
0.54012
0.52544
0.50978
0.49511
0.48532
0.48532
0.48043
0.47456
0.47456
0.47456
0.47456
0.48043
0.48043
0.48043
0.48043
0.48532
0.48532
0.48532
0.48532
0.48532
0.48532
0.48532
0.48532
0.48532
0.48532
0.48532
0.48532
0.49022
0.49022
0.49022
0.49022
0.49022
0.49022
0.49022
0.49022
0.49022
0.49511
0.49511
0.5
0.50489
0.50489
0.49511
0.49511
0.49022
0.49022
0.49022
0.48532
0.48532
0.48532
0.48532
0.48532
0.48532
0.49511
0.52544
0.56458
0.58513
0.54501
0.4501
0.34442
0.31996
0.38454
0.4501
0.49022
0.5
0.50489
0.50489
0.50978
0.50978
0.50978
0.51468
0.51468
0.51957
0.52544
0.53033
0.53523
0.54012
0.5499
0.55479
0.57045
0.57534
0.58023
0.58513
0.59002
0.58513
0.58023
0.57045
0.55479
0.53523
0.51468
0.50489
0.49511
0.49022
0.48532
0.48043
0.47456
0.47456
0.46967
0.47456
0.47456
0.48043
0.48043
0.48043
0.48532
0.48532
0.48532
0.48532
0.48532
0.48532
0.48532
0.48532
0.49022
0.49022
0.49022
0.49022
0.48532
0.48532
0.48532
0.48532
0.48532
0.48532
0.48532
0.48532
0.49022
0.49022
0.49511
0.49511
0.5
0.49511
0.49511
0.49022
0.49022
0.49022
0.48532
0.48532
0.48532
0.48532
0.48532
0.48532
0.49022
0.51957
0.55479
0.57534
0.54501
0.45499
0.36986
0.35029
0.38454
0.44031
0.48043
0.49022
0.49511
0.49511
0.49511
0.50489
0.50489
0.50978
0.50978
0.51468
0.51468
0.51957
0.52544
0.53033
0.53033
0.54012
0.55479
0.55969
0.56458
0.57045
0.57045
0.57045
0.56458
0.55969
0.5499
0.53033
0.51468
0.50489
0.49022
0.49022
0.48532
0.48532
0.48532
0.48532
0.48532
0.48043
0.48043
0.48043
0.47456
0.47456
0.48043
0.48532
0.48532
0.48532
0.48532
0.48532
0.48532
0.48532
0.48532
0.48532
0.48532
0.49022
0.49022
0.49022
0.49022
0.49022
0.49022
0.49022
0.49022
0.49511
0.49511
0.5
0.50489
0.50978
0.50978
0.50489
0.5
0.49511
0.49511
0.49511
0.49022
0.49022
0.48532
0.48532
0.48043
0.48532
0.49022
0.51957
0.55479
0.58023
0.55969
0.47456
0.38454
0.35029
0.38454
0.44031
0.48043
0.49511
0.5
0.50489
0.50489
0.50978
0.50978
0.50978
0.51468
0.51468
0.51957
0.52544
0.52544
0.53033
0.53523
0.54501
0.55479
0.56458
0.57045
0.57534
0.58023
0.58023
0.57534
0.56458
0.5499
0.53523
0.52544
0.50978
0.5
0.49511
0.49022
0.48532
0.48532
0.48043
0.48043
0.48043
0.48043
0.48532
0.48532
0.49022
0.49022
0.49022
0.49022
0.49022
0.49511
0.49511
0.49511
0.49511
0.49511
0.49511
0.49511
0.49511
0.49511
0.49511
0.49511
0.49511
0.49511
0.49022
0.49022
0.49022
0.49022
0.49511
0.49511
0.50489
0.50489
0.5
0.49511
0.49022
0.49022
0.49022
0.49022
0.49022
0.48532
0.48532
0.48532
0.48532
0.48532
0.50489
0.54501
0.58023
0.58513
0.5
0.38454
0.31018
0.34442
0.42466
0.48043
0.49511
0.50489
0.50978
0.50978
0.51468
0.51468
0.51468
0.51468
0.51468
0.52544
0.53033
0.53523
0.54012
0.5499
0.55479
0.55969
0.57534
0.58023
0.58513
0.59491
0.59491
0.58513
0.57534
0.56458
0.54501
0.52544
0.50978
0.49511
0.48532
0.48043
0.47456
0.47456
0.46967
0.46967
0.46967
0.46967
0.46967
0.47456
0.47456
0.47456
0.47456
0.47456
0.48043
0.48043
0.47456
0.47456
0.47456
0.47456
0.47456
0.47456
0.47456
0.47456
0.47456
0.47456
0.47456
0.47456
0.47456
0.47456
0.48043
0.48532
0.49022
0.49511
0.49511
0.50489
0.5
0.49511
0.49511
0.49022
0.49022
0.48532
0.48532
0.48043
0.48043
0.48043
0.48043
0.48532
0.5
0.53523
0.57534
0.58513
0.53033
0.42955
0.34442
0.33464
0.40509
0.46477
0.49022
0.5
0.50489
0.50489
0.50978
0.50978
0.51468
0.51468
0.51468
0.51957
0.52544
0.52544
0.52544
0.53033
0.53523
0.54501
0.55479
0.55969
0.57045
0.57045
0.57534
0.57045
0.55969
0.55479
0.54012
0.52544
0.50978
0.49022
0.48043
0.47456
0.47456
0.47456
0.47456
0.46967
0.46967
0.46967
0.46967
0.46967
0.47456
0.47456
0.48043
0.48043
0.47456
0.47456
0.47456
0.46967
0.46967
0.47456
0.47456
0.47456
0.47456
0.47456
0.47456
0.47456
0.47456
0.47456
0.47456
0.48043
0.48043
0.48532
0.49022
0.49022
0.49511
0.5
0.50489
0.49511
0.49511
0.49022
0.49022
0.48532
0.48532
0.48532
0.48532
0.48532
0.48532
0.48532
0.49022
0.51957
0.55479
0.57534
0.54501
0.45499
0.36986
0.35029
0.38943
0.44521
0.48532
0.5
0.50489
0.50489
0.50978
0.51468
0.51468
0.51468
0.51468
0.51468
0.51957
0.52544
0.53033
0.53523
0.54012
0.54501
0.55479
0.56458
0.57534
0.57534
0.58023
0.57534
0.57045
0.55969
0.5499
0.53523
0.51468
0.50489
0.49511
0.48532
0.48043
0.48043
0.48532
0.48532
0.48532
0.48532
0.48532
0.48532
0.48532
0.48532
0.48532
0.48532
0.49022
0.49022
0.49022
0.49022
0.49022
0.49022
0.49022
0.49022
0.48532
0.48532
0.48532
0.48532
0.48532
0.48532
0.48532
0.48532
0.49022
0.49022
0.49022
0.49511
0.5
0.50489
0.50978
0.50489
0.5
0.49511
0.49022
0.48532
0.48532
0.48532
0.48532
0.48532
0.48532
0.48532
0.49022
0.50978
0.5499
0.58023
0.58513
0.49511
0.38943
0.33464
0.36497
0.42955
0.47456
0.5
0.50489
0.50978
0.50978
0.51468
0.51468
0.51468
0.51957
0.52544
0.53033
0.53033
0.53523
0.54012
0.5499
0.55479
0.57045
0.58023
0.58513
0.59002
0.59491
0.59491
0.58513
0.57534
0.55969
0.54501
0.53033
0.51468
0.50489
0.49511
0.49022
0.49022
0.49022
0.48532
0.48532
0.48532
0.48532
0.48532
0.48532
0.48532
0.49022
0.48532
0.48532
0.48532
0.48532
0.48532
0.48532
0.48532
0.48532
0.48532
0.48532
0.48532
0.48532
0.49022
0.49022
0.49022
0.49022
0.49022
0.48532
0.48532
0.48532
0.49022
0.49511
0.49511
0.50489
0.50489
0.50978
0.5
0.49022
0.49022
0.49022
0.49022
0.49022
0.49022
0.48532
0.48532
0.48532
0.49511
0.51468
0.55479
0.58513
0.57045
0.48043
0.36497
0.31018
0.36008
0.44031
0.49022
0.50489
0.50978
0.50978
0.50978
0.51468
0.51468
0.51957
0.52544
0.53033
0.53523
0.53523
0.54012
0.5499
0.55479
0.56458
0.57045
0.58023
0.59002
0.59491
0.5998
0.5998
0.59491
0.58513
0.57045
0.5499
0.53033
0.51468
0.5
0.49022
0.48532
0.48043
0.47456
0.47456
0.47456
0.47456
0.47456
0.47456
0.48043
0.48532
0.48532
0.48043
0.48043
0.48043
0.48043
0.48043
0.48532
0.48532
0.48532
0.48532
0.48532
0.48532
0.48043
0.48043
0.48043
0.48532
0.48532
0.48532
0.48532
0.48532
0.49022
0.49511
0.5
0.50489
0.50489
0.5
0.49511
0.49022
0.49022
0.49022
0.48532
0.48532
0.48532
0.48532
0.48532
0.48532
0.49511
0.52544
0.55969
0.58023
0.58513
0.48532
0.38943
0.35029
0.37965
0.44031
0.48043
0.49511
0.50489
0.50489
0.50978
0.50978
0.51468
0.51468
0.51468
0.51957
0.52544
0.52544
0.52544
0.53033
0.53523
0.54501
0.55479
0.55969
0.57045
0.57534
0.57534
0.57534
0.57045
0.56458
0.5499
0.53523
0.52544
0.50978
0.50489
0.49511
0.49022
0.48532
0.48532
0.48532
0.48532
0.48532
0.48532
0.48532
0.48532
0.48532
0.49022
0.49022
0.49022
0.49022
0.48532
0.48532
0.48532
0.48532
0.48532
0.48532
0.48532
0.48532
0.48532
0.48532
0.49022
0.49022
0.49022
0.49022
0.49022
0.49511
0.5
0.50489
0.51468
0.51468
0.50978
0.50489
0.5
0.49511
0.49511
0.49022
0.49022
0.49022
0.49022
0.49022
0.49022
0.49022
0.50978
0.54501
0.58023
0.58513
0.50489
0.40998
0.35029
0.36986
0.42466
0.47456
0.5
0.50978
0.50978
0.51468
0.51468
0.51468
0.51468
0.51468
0.51468
0.51957
0.52544
0.53033
0.53523
0.54012
0.54501
0.55479
0.56458
0.57534
0.58023
0.58023
0.58513
0.58023
0.57045
0.55969
0.54501
0.53033
0.51468
0.50489
0.49511
0.49022
0.48532
0.48532
0.48532
0.48043
0.48043
0.48043
0.48532
0.48532
0.48532
0.49022
0.49022
0.49022
0.49022
0.49022
0.49022
0.48532
0.48532
0.48532
0.48532
0.48532
0.49022
0.49022
0.49022
0.49022
0.49022
0.49511
0.49511
0.49511
0.49511
0.49511
0.49511
0.5
0.50489
0.50489
0.50489
0.49511
0.49511
0.49022
0.49022
0.49022
0.48532
0.48532
0.48043
0.48043
0.48532
0.49022
0.50978
0.54501
0.57534
0.58023
0.49022
0.37476
0.31507
0.35519
0.42955
0.48043
0.5
0.50489
0.50489
0.50489
0.50978
0.51468
0.51957
0.52544
0.52544
0.53033
0.53033
0.53523
0.54012
0.5499
0.55479
0.55969
0.57045
0.58023
0.58513
0.59491
0.59491
0.59002
0.58023
0.57045
0.5499
0.53033
0.50978
0.5
0.49022
0.48532
0.48043
0.47456
0.48043
0.48043
0.48532
0.48532
0.48532
0.48532
0.48532
0.48532
0.48532
0.48532
0.48532
0.48532
0.48532
0.48532
0.49022
0.49022
0.49022
0.49022
0.49022
0.49022
0.49022
0.49022
0.49022
0.49022
0.48532
0.49022
0.49022
0.49511
0.49511
0.5
0.50489
0.50978
0.50978
0.50489
0.5
0.49511
0.49511
0.49511
0.49022
0.49022
0.48532
0.48532
0.48532
0.49022
0.5
0.53523
0.57534
0.58513
0.54012
0.44521
0.34442
0.32485
0.3953
0.45988
0.49511
0.50489
0.50978
0.50978
0.50978
0.50978
0.51468
0.51468
0.52544
0.53033
0.53033
0.53523
0.53523
0.53523
0.54012
0.55479
0.56458
0.57534
0.58023
0.58513
0.58513
0.58023
0.58023
0.57045
0.55479
0.53523
0.51957
0.50489
0.49511
0.48532
0.48043
0.47456
0.47456
0.47456
0.47456
0.47456
0.48043
0.48532
0.48532
0.48532
0.48532
0.48532
0.48532
0.48532
0.48532
0.48532
0.48532
0.48532
0.48532
0.48532
0.49022
0.48532
0.48532
0.48532
0.48532
0.48532
0.48532
0.48043
0.48043
0.48532
0.49022
0.49511
0.5
0.50489
0.50489
0.5
0.49511
0.49022
0.49022
0.49022
0.49022
0.48532
0.48532
0.48532
0.48532
0.48532
0.49022
0.51957
0.55479
0.58023
0.55479
0.46967
0.37476
0.35029
0.38454
0.44521
0.48532
0.49511
0.50489
0.50489
0.50489
0.50978
0.50978
0.51468
0.51468
0.51468
0.51957
0.51957
0.52544
0.53033
0.53523
0.54012
0.5499
0.55479
0.56458
0.57045
0.57534
0.57534
0.57045
0.55969
0.54501
0.53033
0.51957
0.50978
0.5
0.49022
0.49022
0.48532
0.48532
0.48532
0.48043
0.48043
0.48532
0.48532
0.48532
0.48532
0.48532
0.48532
0.48532
0.48532
0.48532
0.48532
0.48532
0.48532
0.48532
0.48532
0.48532
0.48532
0.48532
0.48532
0.48532
0.48532
0.48532
0.48532
0.48532
0.49022
0.49511
0.49511
0.50489
0.50978
0.50978
0.50489
0.5
0.49511
0.49511
0.49511
0.49022
0.48532
0.48532
0.48532
0.48532
0.48532
0.49511
0.52544
0.56458
0.57534
0.53033
0.43542
0.35519
0.33953
0.3953
0.4501
0.48532
0.49511
0.5
0.50489
0.50489
0.50489
0.50978
0.50978
0.51468
0.51468
0.51468
0.51957
0.52544
0.53033
0.53523
0.5499
0.55479
0.55969
0.57045
0.57534
0.57534
0.57534
0.57045
0.55479
0.54012
0.52544
0.50978
0.49511
0.48532
0.47456
0.47456
0.47456
0.47456
0.47456
0.47456
0.46967
0.46967
0.46967
0.46967
0.47456
0.47456
0.47456
0.47456
0.47456
0.47456
0.47456
0.47456
0.47456
0.47456
0.48043
0.48043
0.47456
0.47456
0.47456
0.47456
0.47456
0.47456
0.48532
0.48532
0.48532
0.48532
0.49022
0.49511
0.49511
0.5
0.49511
0.49022
0.48532
0.48532
0.48043
0.48532
0.48532
0.48043
0.48043
0.48043
0.47456
0.48532
0.50489
0.54501
0.57534
0.56458
0.48043
0.36497
0.29941
0.35029
0.43542
0.48532
0.50489
0.50978
0.50978
0.51468
0.51957
0.52544
0.52544
0.53033
0.53033
0.53033
0.53523
0.53523
0.54012
0.5499
0.55479
0.55969
0.56458
0.57045
0.57534
0.57534
0.57534
0.57045
0.55969
0.54501
0.52544
0.50489
0.49022
0.47456
0.46477
0.45988
0.45499
0.45499
0.45499
0.45988
0.45988
0.46477
0.46477
0.46477
0.46477
0.46477
0.46477
0.46967
0.46967
0.46967
0.47456
0.47456
0.47456
0.47456
0.47456
0.46967
0.46967
0.46967
0.47456
0.47456
0.48043
0.47456
0.47456
0.47456
0.47456
0.48043
0.48532
0.49022
0.49022
0.49511
0.49022
0.48532
0.48043
0.48043
0.48043
0.47456
0.47456
0.46967
0.46967
0.46967
0.47456
0.48532
0.50978
0.55479
0.58023
0.56458
0.48043
0.38454
0.35029
0.38454
0.44521
0.48532
0.50489
0.50978
0.50978
0.51468
0.51468
0.51468
0.51957
0.52544
0.53033
0.53033
0.53033
0.53033
0.53523
0.53523
0.54012
0.5499
0.55479
0.55969
0.57045
0.57045
0.57045
0.56458
0.55479
0.54501
0.53033
0.51468
0.50489
0.49511
0.49022
0.48532
0.48043
0.48043
0.48043
0.48043
0.48043
0.48043
0.48043
0.48043
0.48043
0.47456
0.47456
0.48043
0.48043
0.48532
0.48532
0.48532
0.48532
0.48532
0.48532
0.48532
0.49022
0.49022
0.49022
0.49022
0.49022
0.49022
0.49022
0.49022
0.49022
0.49511
0.49511
0.50489
0.50978
0.50489
0.50489
0.5
0.49511
0.49022
0.49022
0.49022
0.48532
0.48532
0.48532
0.48532
0.48532
0.50489
0.53523
0.57045
0.58023
0.53033
0.43542
0.36497
0.36008
0.41487
0.46477
0.49022
0.50489
0.50489
0.50489
0.50978
0.50978
0.51468
0.51468
0.51468
0.51468
0.51468
0.52544
0.53033
0.53523
0.54012
0.54501
0.55479
0.55969
0.57045
0.57534
0.57534
0.57534
0.57045
0.55969
0.5499
0.53523
0.51468
0.50489
0.49511
0.49022
0.48532
0.48532
0.48532
0.49022
0.48532
0.48532
0.48532
0.48043
0.48043
0.48043
0.48532
0.48532
0.48532
0.48532
0.48532
0.48043
0.47456
0.47456
0.47456
0.47456
0.47456
0.48532
0.48532
0.48532
0.48532
0.48532
0.48043
0.48043
0.48043
0.48532
0.49022
0.49022
0.49511
0.5
0.49511
0.49511
0.49022
0.49022
0.48532
0.48532
0.47456
0.47456
0.47456
0.47456
0.47456
0.48532
0.51468
0.5499
0.57534
0.55479
0.46967
0.36497
0.32485
0.36497
0.42955
0.46967
0.49022
0.49511
0.5
0.50489
0.50489
0.50489
0.50978
0.50978
0.51468
0.51468
0.51957
0.51957
0.52544
0.53033
0.53523
0.54501
0.55479
0.55969
0.57045
0.57534
0.57534
0.57045
0.55969
0.54501
0.52544
0.50978
0.49022
0.48043
0.47456
0.46967
0.46477
0.46477
0.46477
0.45988
0.45988
0.46477
0.46477
0.45988
0.45988
0.45988
0.46477
0.46477
0.46477
0.46477
0.46477
0.46477
0.46477
0.46477
0.46477
0.46477
0.46477
0.46477
0.46477
0.46477
0.46477
0.46477
0.46477
0.46477
0.46967
0.47456
0.47456
0.48043
0.48532
0.48532
0.48043
0.47456
0.46967
0.46967
0.46477
0.46477
0.46477
0.45988
0.46477
0.46477
0.46477
0.46967
0.5
0.54012
0.56458
0.54012
0.4501
0.33953
0.29941
0.35519
0.42955
0.46967
0.48532
0.49022
0.49022
0.49022
0.49511
0.49511
0.49511
0.5
0.50489
0.50978
0.50978
0.51468
0.52544
0.53033
0.53523
0.54501
0.55479
0.56458
0.57534
0.57534
0.57534
0.57045
0.55479
0.54501
0.52544
0.50489
0.49022
0.48043
0.47456
0.46967
0.46477
0.46477
0.46477
0.46477
0.46477
0.46477
0.46477
0.46477
0.46967
0.46967
0.46967
0.46967
0.46477
0.46967
0.46967
0.46967
0.46967
0.47456
0.47456
0.46967
0.46967
0.47456
0.47456
0.47456
0.47456
0.47456
0.47456
0.47456
0.47456
0.48532
0.48532
0.49022
0.49022
0.49022
0.49022
0.49022
0.48043
0.47456
0.47456
0.46967
0.46967
0.47456
0.47456
0.47456
0.48532
0.51468
0.55479
0.57534
0.5499
0.45988
0.36986
0.35029
0.37965
0.43542
0.47456
0.49022
0.49511
0.5
0.50489
0.50489
0.50978
0.50978
0.50978
0.51468
0.51468
0.51468
0.51957
0.53033
0.53523
0.54012
0.5499
0.55479
0.55969
0.57045
0.57045
0.57045
0.56458
0.55479
0.54501
0.53033
0.51468
0.50489
0.49511
0.48532
0.48043
0.47456
0.47456
0.47456
0.48043
0.48532
0.48532
0.48532
0.48532
0.48532
0.48532
0.48532
0.48532
0.48532
0.48532
0.48532
0.48532
0.48532
0.48532
0.48532
0.48532
0.48532
0.48532
0.48532
0.48532
0.48532
0.49022
0.49022
0.49022
0.49511
0.5
0.50489
0.50978
0.50978
0.50489
0.50489
0.49511
0.49511
0.49022
0.49022
0.49022
0.49022
0.48532
0.48532
0.49022
0.50489
0.53523
0.57534
0.58513
0.54012
0.44521
0.36986
0.36008
0.40998
0.46477
0.49022
0.50489
0.50489
0.50978
0.50978
0.51468
0.51468
0.51957
0.52544
0.52544
0.53033
0.53033
0.53523
0.53523
0.54012
0.5499
0.55969
0.57045
0.57534
0.58023
0.58023
0.58023
0.57045
0.55969
0.5499
0.53033
0.51468
0.50978
0.50489
0.49511
0.49022
0.49022
0.48532
0.48532
0.48532
0.48532
0.48532
0.48532
0.48532
0.48532
0.49022
0.49022
0.49022
0.49022
0.49022
0.49022
0.49022
0.49022
0.49022
0.49022
0.49511
0.49022
0.49022
0.49022
0.49022
0.49511
0.49511
0.49511
0.49511
0.5
0.50489
0.50489
0.50978
0.51468
0.50978
0.50978
0.50489
0.50489
0.5
0.49511
0.49022
0.49022
0.49022
0.49022
0.49022
0.50489
0.53523
0.57534
0.59002
0.54501
0.44521
0.34442
0.32485
0.40509
0.46967
0.50489
0.50978
0.51468
0.51468
0.51957
0.52544
0.53033
0.53033
0.53523
0.53523
0.54012
0.54012
0.54501
0.55479
0.55969
0.57045
0.58023
0.59002
0.59491
0.5998
0.6047
0.5998
0.59491
0.58023
0.56458
0.54501
0.53033
0.51468
0.50489
0.49511
0.49022
0.49022
0.49022
0.48532
0.48532
0.49022
0.49022
0.49022
0.49022
0.49511
0.49511
0.49511
0.5
0.50489
0.5
0.49511
0.49511
0.49511
0.49511
0.49511
0.49511
0.49511
0.49511
0.49511
0.49511
0.49511
0.49511
0.49511
0.49511
0.5
0.50489
0.50978
0.51468
0.51468
0.51468
0.50978
0.50978
0.50489
0.5
0.49511
0.49511
0.49511
0.49022
0.49022
0.49511
0.5
0.51957
0.55969
0.59491
0.5998
0.51468
0.4002
0.33953
0.36986
0.43542
0.49022
0.50978
0.51468
0.51468
0.52544
0.52544
0.52544
0.52544
0.52544
0.53033
0.53523
0.54012
0.54012
0.54501
0.5499
0.55479
0.56458
0.57534
0.58023
0.58513
0.59002
0.59491
0.58513
0.58023
0.56458
0.5499
0.53033
0.51957
0.50978
0.50489
0.49511
0.49022
0.49022
0.48532
0.48532
0.48532
0.49022
0.49022
0.49022
0.49022
0.49022
0.49511
0.49511
0.49511
0.49511
0.49511
0.49511
0.49511
0.49022
0.49022
0.49022
0.49022
0.49022
0.49022
0.49511
0.49511
0.49511
0.49022
0.49022
0.49511
0.5
0.50489
0.50978
0.50978
0.50978
0.50489
0.50489
0.49511
0.49511
0.49511
0.49022
0.49022
0.49022
0.49022
0.49022
0.5
0.52544
0.55969
0.58513
0.57045
0.48532
0.4002
0.36497
0.38943
0.44521
0.48532
0.50489
0.50978
0.51468
0.51468
0.51468
0.51957
0.52544
0.53033
0.53033
0.53033
0.53523
0.53523
0.54012
0.5499
0.55479
0.55969
0.56458
0.57534
0.58023
0.58023
0.58023
0.57534
0.57045
0.55479
0.54012
0.52544
0.50978
0.5
0.49022
0.48532
0.48532
0.48532
0.49022
0.49022
0.49022
0.49022
0.49022
0.49022
0.49022
0.49022
0.49022
0.49022
0.49022
0.49022
0.49022
0.49022
0.49022
0.49022
0.49022
0.49511
0.49511
0.49511
0.49511
0.49511
0.49511
0.49511
0.49511
0.49511
0.49511
0.50489
0.50978
0.51468
0.51468
0.50978
0.50978
0.50978
0.50489
0.50489
0.5
0.49511
0.49511
0.49022
0.49022
0.49022
0.49511
0.51957
0.55479
0.58023
0.58513
0.50489
0.40509
0.35519
0.38454
0.44521
0.49022
0.50978
0.51468
0.51468
0.51957
0.51468
0.51468
0.51957
0.52544
0.53033
0.53523
0.54012
0.54012
0.54501
0.5499
0.55479
0.56458
0.57534
0.58023
0.58513
0.59491
0.59491
0.59002
0.58023
0.57045
0.55479
0.53523
0.52544
0.50978
0.50489
0.5
0.49511
0.49022
0.49022
0.49022
0.49022
0.49022
0.49022
0.49022
0.49022
0.49022
0.49022
0.49022
0.49022
0.49511
0.49511
0.49511
0.5
0.5
0.49511
0.49511
0.49511
0.5
0.5
0.5
0.5
0.50489
0.5
0.5
0.5
0.5
0.50489
0.50978
0.51468
0.51468
0.51468
0.50978
0.50489
0.5
0.49511
0.49511
0.49511
0.49022
0.49022
0.49022
0.48532
0.49022
0.50489
0.53523
0.57534
0.58513
0.53523
0.42955
0.33464
0.31996
0.40998
0.47456
0.50489
0.51468
0.51468
0.51957
0.52544
0.52544
0.52544
0.53033
0.53033
0.53033
0.53523
0.54012
0.5499
0.55479
0.55969
0.57045
0.58023
0.59002
0.5998
0.6047
0.6047
0.6047
0.59491
0.58023
0.55969
0.54012
0.52544
0.50978
0.5
0.49511
0.49022
0.48532
0.48532
0.48043
0.48532
0.48532
0.48532
0.48532
0.48532
0.48532
0.49022
0.49022
0.49022
0.48532
0.48532
0.48532
0.48532
0.48532
0.48043
0.48043
0.48043
0.48043
0.48532
0.48532
0.48532
0.48532
0.48532
0.48532
0.48532
0.49022
0.49022
0.49511
0.50489
0.50489
0.50489
0.50489
0.49511
0.49511
0.49511
0.49511
0.49022
0.49022
0.48532
0.48532
0.48532
0.49022
0.50489
0.53033
0.57045
0.59002
0.54501
0.4501
0.36497
0.35029
0.40509
0.45988
0.49022
0.5
0.50489
0.50978
0.50978
0.50978
0.50978
0.50978
0.51468
0.51468
0.51957
0.52544
0.53033
0.53523
0.54501
0.5499
0.55479
0.56458
0.57534
0.58023
0.57534
0.57534
0.57045
0.55969
0.5499
0.53523
0.51468
0.50489
0.49511
0.49022
0.48532
0.48532
0.48532
0.48532
0.49022
0.48532
0.48532
0.48532
0.48532
0.48532
0.48532
0.49022
0.49022
0.49022
0.49022
0.49511
0.49022
0.49022
0.49022
0.49022
0.49022
0.49022
0.49511
0.49511
0.49511
0.49511
0.49022
0.49022
0.49511
0.49511
0.5
0.50978
0.51468
0.51468
0.50978
0.50978
0.50489
0.5
0.5
0.5
0.49511
0.49511
0.49022
0.49022
0.49022
0.49511
0.51468
0.5499
0.58023
0.58513
0.51468
0.41487
0.35519
0.37476
0.42466
0.47456
0.5
0.50489
0.50978
0.50978
0.51468
0.51468
0.51468
0.51957
0.51957
0.52544
0.52544
0.53033
0.53523
0.54012
0.54501
0.55479
0.55969
0.57045
0.57045
0.57534
0.58023
0.57534
0.57045
0.55479
0.54012
0.53033
0.51468
0.50489
0.49511
0.49022
0.49022
0.48532
0.48532
0.48532
0.48532
0.48532
0.48532
0.48532
0.48532
0.48532
0.48532
0.49022
0.49022
0.49022
0.49022
0.49022
0.49022
0.49022
0.49022
0.49022
0.49022
0.49022
0.49022
0.49022
0.49022
0.49022
0.49022
0.49022
0.49022
0.49511
0.5
0.50489
0.50978
0.50978
0.50978
0.50489
0.5
0.49511
0.49511
0.49511
0.49511
0.49022
0.49022
0.49022
0.49022
0.49022
0.50978
0.5499
0.58023
0.58513
0.50489
0.4002
0.33464
0.36008
0.42466
0.47456
0.5
0.50489
0.50978
0.50978
0.50978
0.51468
0.51468
0.52544
0.52544
0.53033
0.53523
0.53523
0.54012
0.54501
0.5499
0.55969
0.56458
0.57534
0.58023
0.58513
0.58513
0.58513
0.57534
0.55969
0.54501
0.52544
0.50978
0.49511
0.48532
0.48532
0.48532
0.48043
0.48043
0.47456
0.47456
0.47456
0.47456
0.48043
0.48532
0.48532
0.48532
0.48532
0.48532
0.48532
0.48532
0.48532
0.49022
0.49022
0.48532
0.48532
0.49022
0.49022
0.49022
0.49022
0.49022
0.49022
0.49022
0.49022
0.49022
0.49511
0.49511
0.5
0.50489
0.50978
0.50978
0.50489
0.49511
0.49022
0.49022
0.49022
0.48532
0.48532
0.48532
0.48532
0.49022
0.49022
0.50489
0.53523
0.57534
0.58513
0.53523
0.43542
0.33953
0.31996
0.40998
0.46967
0.5
0.50978
0.50978
0.50978
0.51468
0.51468
0.51957
0.51957
0.51957
0.52544
0.52544
0.53033
0.53523
0.54501
0.5499
0.55969
0.57045
0.58023
0.58513
0.59002
0.59491
0.59002
0.58513
0.57534
0.55969
0.54012
0.52544
0.50978
0.49511
0.49022
0.48532
0.48532
0.48532
0.48532
0.48532
0.48532
0.48532
0.48532
0.48532
0.48532
0.48532
0.49022
0.49022
0.49022
0.49022
0.49022
0.49022
0.48532
0.48532
0.48532
0.48532
0.48532
0.48532
0.48532
0.48532
0.48532
0.48532
0.48532
0.48532
0.49022
0.49022
0.49511
0.5
0.50489
0.49511
0.49022
0.48532
0.48532
0.48532
0.48532
0.48532
0.48532
0.48532
0.48532
0.48532
0.49022
0.50978
0.54501
0.57534
0.58023
0.50489
0.40998
0.35519
0.36986
0.42466
0.46967
0.49022
0.49511
0.5
0.50489
0.50978
0.50978
0.50978
0.50978
0.51468
0.51957
0.52544
0.52544
0.53033
0.53523
0.54012
0.5499
0.55969
0.56458
0.57045
0.57534
0.57534
0.56458
0.55969
0.5499
0.53523
0.51957
0.50489
0.49511
0.49022
0.48532
0.48532
0.48043
0.48043
0.48043
0.48043
0.48532
0.48532
0.48532
0.48532
0.48532
0.48532
0.49022
0.49022
0.49022
0.48532
0.48532
0.49022
0.48532
0.48532
0.48043
0.48043
0.48532
0.48532
0.48532
0.48532
0.48532
0.48532
0.48532
0.49022
0.49022
0.49511
0.5
0.50489
0.50489
0.49511
0.49022
0.48532
0.48532
0.48532
0.49022
0.49022
0.48532
0.48532
0.48532
0.49022
0.50489
0.53523
0.57045
0.58023
0.53523
0.44521
0.36497
0.35519
0.41487
0.46477
0.49022
0.5
0.50489
0.50978
0.50978
0.51468
0.51468
0.51468
0.51957
0.52544
0.52544
0.53033
0.53033
0.53523
0.54012
0.5499
0.55479
0.56458
0.57045
0.57534
0.58023
0.57534
0.57045
0.55479
0.54501
0.53033
0.50978
0.5
0.49022
0.48532
0.48532
0.48532
0.48532
0.48043
0.47456
0.47456
0.48043
0.48532
0.49022
0.49022
0.49022
0.48532
0.48532
0.48532
0.48532
0.48532
0.48532
0.48532
0.48532
0.48532
0.49022
0.48532
0.48532
0.48532
0.48532
0.48532
0.48532
0.48532
0.49022
0.49022
0.49022
0.49511
0.5
0.50489
0.5
0.49022
0.49022
0.49022
0.49022
0.48532
0.48532
0.48532
0.48532
0.48532
0.48043
0.48043
0.49022
0.51957
0.55969
0.57534
0.54501
0.4501
0.34442
0.31996
0.38454
0.45499
0.49022
0.5
0.50489
0.50489
0.50978
0.50978
0.51468
0.51468
0.51957
0.52544
0.53033
0.53033
0.53523
0.54012
0.54501
0.55479
0.57045
0.57534
0.58513
0.59002
0.59491
0.59002
0.58023
0.57534
0.55479
0.53523
0.51468
0.50489
0.49022
0.48532
0.48043
0.47456
0.48043
0.48532
0.48043
0.48043
0.47456
0.47456
0.47456
0.48043
0.48043
0.48532
0.48532
0.48532
0.48532
0.48532
0.48532
0.48043
0.48043
0.48043
0.48043
0.48532
0.48532
0.48532
0.48532
0.48532
0.48532
0.48532
0.48532
0.48532
0.49022
0.49022
0.49511
0.5
0.5
0.49022
0.48532
0.48532
0.48532
0.49022
0.48532
0.48532
0.48532
0.48532
0.48532
0.48532
0.49022
0.51957
0.55479
0.58023
0.55969
0.47456
0.37476
0.33953
0.38454
0.4501
0.49022
0.50489
0.50978
0.50978
0.50978
0.51468
0.51468
0.51468
0.51468
0.51468
0.52544
0.53033
0.53033
0.53523
0.54012
0.54501
0.55479
0.56458
0.57045
0.57534
0.58023
0.58023
0.57534
0.56458
0.5499
0.53523
0.51957
0.50489
0.49511
0.49022
0.48532
0.48532
0.48043
0.47456
0.47456
0.48043
0.48532
0.48532
0.49022
0.49022
0.48532
0.48532
0.48532
0.48532
0.48532
0.48532
0.48532
0.48532
0.48532
0.48532
0.48532
0.48532
0.48532
0.48532
0.48532
0.49022
0.48532
0.48532
0.48532
0.49022
0.49022
0.49511
0.49511
0.5
0.50489
0.49511
0.49022
0.49022
0.49022
0.49022
0.49022
0.49022
0.49022
0.49022
0.49022
0.49022
0.5
0.52544
0.55969
0.58023
0.5499
0.46477
0.37476
0.35519
0.38943
0.44521
0.48532
0.49511
0.50489
0.50489
0.50489
0.50978
0.50978
0.50978
0.50978
0.51468
0.51468
0.52544
0.52544
0.53033
0.53523
0.54012
0.5499
0.55479
0.55969
0.57045
0.57045
0.57045
0.56458
0.55479
0.54012
0.53033
0.51468
0.50489
0.49511
0.49022
0.48532
0.48532
0.48532
0.48532
0.48532
0.48532
0.48532
0.48532
0.49022
0.49022
0.49022
0.49511
0.49022
0.49022
0.49022
0.49022
0.49022
0.49022
0.49022
0.49022
0.48532
0.48532
0.48532
0.48532
0.49022
0.49022
0.49022
0.49022
0.49022
0.49511
0.49511
0.5
0.50489
0.50978
0.50489
0.5
0.49511
0.49511
0.49511
0.49022
0.49022
0.49022
0.49022
0.49022
0.48532
0.48532
0.5
0.53033
0.56458
0.58023
0.54501
0.4501
0.36986
0.35029
0.4002
0.45499
0.49022
0.5
0.50489
0.50489
0.50978
0.50978
0.51468
0.51468
0.51468
0.52544
0.52544
0.53033
0.53523
0.54012
0.54501
0.55479
0.55969
0.57045
0.57534
0.58023
0.58023
0.58023
0.57534
0.57045
0.55479
0.53523
0.51468
0.50489
0.49022
0.48532
0.48043
0.47456
0.47456
0.47456
0.47456
0.47456
0.48043
0.48043
0.48043
0.48043
0.48043
0.48043
0.48043
0.48043
0.48043
0.48043
0.48532
0.48532
0.48532
0.48532
0.48532
0.48532
0.48532
0.48043
0.48043
0.48532
0.48532
0.48532
0.48532
0.49022
0.49022
0.49511
0.5
0.50489
0.50978
0.5
0.49511
0.49022
0.49022
0.49022
0.49022
0.49022
0.48532
0.48532
0.48532
0.49022
0.5
0.52544
0.56458
0.59002
0.57534
0.49022
0.37476
0.32485
0.37476
0.4501
0.5
0.50978
0.51468
0.51957
0.52544
0.52544
0.52544
0.52544
0.53033
0.53033
0.53523
0.54012
0.5499
0.55479
0.55969
0.57045
0.57534
0.58513
0.59491
0.5998
0.6047
0.5998
0.59491
0.58023
0.57045
0.5499
0.53033
0.51468
0.50489
0.49511
0.48532
0.48532
0.48532
0.48532
0.48532
0.48532
0.48532
0.48532
0.48043
0.48043
0.48043
0.48043
0.48532
0.48532
0.48532
0.48532
0.48532
0.48532
0.48532
0.48532
0.48532
0.48532
0.48532
0.48532
0.48532
0.49022
0.49022
0.49022
0.49022
0.49022
0.49022
0.49022
0.49511
0.5
0.50489
0.5
0.49511
0.49022
0.49022
0.49022
0.48532
0.48532
0.48532
0.48532
0.48532
0.48532
0.49022
0.50978
0.54012
0.57534
0.58023
0.51468
0.41487
0.35519
0.36986
0.42466
0.46967
0.49022
0.49511
0.5
0.50489
0.50489
0.50978
0.50978
0.50978
0.51468
0.51957
0.52544
0.53033
0.53033
0.54012
0.54501
0.55479
0.55969
0.57045
0.57534
0.57534
0.57534
0.57534
0.57045
0.55479
0.53523
0.52544
0.50978
0.5
0.49022
0.48532
0.48532
0.48043
0.48043
0.48043
0.48043
0.48043
0.48532
0.48532
0.48532
0.48532
0.48532
0.49022
0.49022
0.48532
0.48532
0.48532
0.48532
0.48532
0.48532
0.49022
0.49022
0.49022
0.49022
0.48532
0.48532
0.49022
0.49022
0.49511
0.49511
0.49511
0.5
0.50489
0.50978
0.51468
0.50978
0.5
0.49511
0.49511
0.49511
0.49511
0.49511
0.49511
0.49511
0.49511
0.49022
0.49022
0.50489
0.53523
0.57534
0.58023
0.53033
0.44031
0.36986
0.36008
0.41487
0.46967
0.49022
0.5
0.5
0.50489
0.50978
0.51468
0.51468
0.51957
0.52544
0.52544
0.53033
0.53523
0.54012
0.54012
0.5499
0.55479
0.56458
0.57534
0.58023
0.58513
0.58513
0.58023
0.57534
0.57045
0.55479
0.54012
0.52544
0.50978
0.50489
0.49511
0.49022
0.49022
0.49022
0.49511
0.49511
0.49511
0.49511
0.49511
0.49511
0.49511
0.49511
0.49511
0.49511
0.49511
0.5
0.5
0.49511
0.49511
0.49511
0.49511
0.49511
0.49511
0.49022
0.49022
0.49022
0.49022
0.49022
0.49022
0.49022
0.49511
0.49511
0.50489
0.50978
0.51468
0.50489
0.49511
0.49511
0.49022
0.49022
0.49022
0.49022
0.49022
0.49022
0.49022
0.49022
0.49511
0.51957
0.55479
0.59002
0.59491
0.51468
0.40509
0.33464
0.36497
0.42955
0.48043
0.50489
0.50489
0.50978
0.50978
0.51468
0.51468
0.51468
0.51957
0.52544
0.52544
0.52544
0.53033
0.53523
0.54501
0.55479
0.55969
0.57045
0.57534
0.58023
0.59002
0.58513
0.58023
0.57534
0.55969
0.54012
0.52544
0.50978
0.49511
0.49022
0.48532
0.48043
0.47456
0.47456
0.47456
0.47456
0.47456
0.47456
0.47456
0.47456
0.48043
0.48043
0.48043
0.48043
0.48532
0.48532
0.48532
0.48532
0.48532
0.48043
0.47456
0.47456
0.48043
0.48043
0.48532
0.48532
0.48532
0.48043
0.48043
0.48532
0.48532
0.49022
0.49511
0.50489
0.50489
0.49511
0.49511
0.49022
0.49022
0.49022
0.49022
0.48532
0.48532
0.48532
0.48532
0.49022
0.49511
0.52544
0.55969
0.58023
0.55479
0.45988
0.35519
0.32485
0.38454
0.4501
0.49022
0.5
0.50489
0.50489
0.50978
0.50978
0.51468
0.51957
0.51468
0.51468
0.51957
0.52544
0.53523
0.54012
0.54501
0.5499
0.55969
0.57045
0.58023
0.58023
0.58513
0.58513
0.58023
0.57045
0.5499
0.53033
0.50978
0.49511
0.48532
0.48043
0.47456
0.47456
0.47456
0.47456
0.47456
0.47456
0.47456
0.47456
0.47456
0.47456
0.48043
0.48532
0.48043
0.48043
0.47456
0.47456
0.47456
0.47456
0.48043
0.48532
0.48532
0.48043
0.48043
0.47456
0.47456
0.47456
0.47456
0.47456
0.48043
0.48532
0.49022
0.49022
0.49511
0.5
0.49511
0.48532
0.48532
0.48532
0.48532
0.48532
0.48043
0.48532
0.48532
0.48532
0.48043
0.48532
0.50978
0.54012
0.57045
0.57534
0.49511
0.4002
0.35029
0.36986
0.42466
0.46967
0.49022
0.49511
0.49511
0.5
0.5
0.50489
0.50978
0.50978
0.50978
0.51468
0.51957
0.52544
0.52544
0.53033
0.53523
0.54012
0.5499
0.55969
0.57045
0.57045
0.56458
0.55969
0.55479
0.54501
0.53523
0.52544
0.50978
0.49511
0.49022
0.48532
0.48532
0.48043
0.48043
0.47456
0.47456
0.47456
0.48043
0.48043
0.48043
0.48043
0.48043
0.48043
0.48043
0.48532
0.48532
0.48532
0.48532
0.48532
0.48043
0.47456
0.47456
0.47456
0.47456
0.47456
0.48043
0.48532
0.48043
0.48043
0.48532
0.49022
0.49022
0.49511
0.50489
0.49511
0.49022
0.48532
0.48043
0.48043
0.48532
0.48532
0.48532
0.48532
0.48532
0.48043
0.48043
0.49511
0.53033
0.56458
0.57534
0.52544
0.43542
0.36008
0.35029
0.40998
0.46477
0.49022
0.5
0.50489
0.50489
0.50978
0.50978
0.50978
0.50978
0.51468
0.51468
0.51468
0.52544
0.53033
0.53523
0.54012
0.54501
0.5499
0.55969
0.57045
0.57534
0.57534
0.57534
0.57045
0.55969
0.54012
0.52544
0.50978
0.5
0.49022
0.48532
0.48043
0.47456
0.47456
0.46967
0.46967
0.47456
0.47456
0.48043
0.48043
0.48043
0.47456
0.48043
0.48043
0.48532
0.48532
0.49022
0.48532
0.48532
0.48532
0.48532
0.48532
0.48043
0.48043
0.48043
0.48532
0.49022
0.49022
0.49022
0.49022
0.49511
0.49511
0.50489
0.50489
0.5
0.49022
0.49022
0.49022
0.48532
0.48532
0.48532
0.48043
0.48043
0.48532
0.48532
0.49022
0.50489
0.54012
0.57534
0.58513
0.51957
0.40509
0.31507
0.31018
0.40998
0.46967
0.49511
0.5
0.50489
0.50489
0.50489
0.50978
0.50978
0.51468
0.52544
0.52544
0.53033
0.53523
0.54012
0.54501
0.55479
0.56458
0.57534
0.58513
0.59002
0.59491
0.59002
0.58513
0.58023
0.57045
0.5499
0.52544
0.50978
0.49511
0.48532
0.48043
0.48043
0.48043
0.47456
0.47456
0.47456
0.47456
0.47456
0.47456
0.48532
0.48532
0.48532
0.48532
0.48532
0.48532
0.48532
0.48043
0.48043
0.48043
0.48532
0.48532
0.48532
0.48532
0.48532
0.48532
0.48043
0.48043
0.48043
0.48043
0.48532
0.48532
0.49022
0.49511
0.50489
0.5
0.49022
0.48532
0.48532
0.48532
0.48532
0.48532
0.48532
0.48532
0.48532
0.48532
0.48532
0.49022
0.52544
0.56458
0.58513
0.5499
0.45499
0.36497
0.33953
0.38943
0.4501
0.49022
0.5
0.50489
0.50489
0.50978
0.50978
0.50978
0.50978
0.50978
0.51468
0.52544
0.52544
0.53033
0.53523
0.54012
0.5499
0.55479
0.56458
0.57534
0.58023
0.58513
0.58023
0.57045
0.55969
0.54501
0.53033
0.51468
0.50489
0.49511
0.49022
0.48532
0.48532
0.47456
0.47456
0.47456
0.48043
0.48532
0.48532
0.48532
0.48532
0.48532
0.48532
0.48532
0.48532
0.48043
0.48043
0.48532
0.48532
0.48532
0.48532
0.48043
0.48043
0.48532
0.48532
0.48532
0.48532
0.48532
0.49022
0.49022
0.49022
0.49511
0.5
0.50489
0.50489
0.49511
0.49022
0.49022
0.49022
0.49022
0.49022
0.48532
0.48532
0.48532
0.48532
0.48532
0.49022
0.51468
0.54501
0.57534
0.58023
0.49022
0.4002
0.36008
0.38454
0.43542
0.48043
0.49511
0.50489
0.50489
0.50978
0.50978
0.50978
0.50978
0.50978
0.51468
0.51468
0.51468
0.51957
0.52544
0.53523
0.54012
0.5499
0.55479
0.55969
0.56458
0.57045
0.57045
0.57045
0.55969
0.5499
0.53523
0.51957
0.50978
0.49511
0.49022
0.48532
0.48043
0.48043
0.48043
0.48532
0.48532
0.48532
0.48532
0.48532
0.48532
0.48532
0.48532
0.48532
0.48532
0.48532
0.48532
0.48532
0.49022
0.49022
0.49022
0.49022
0.49022
0.49022
0.49022
0.49022
0.48532
0.48532
0.48532
0.49022
0.49022
0.49022
0.49511
0.5
0.50489
0.5
0.49022
0.49022
0.49022
0.49022
0.49511
0.49022
0.49022
0.49022
0.49022
0.49022
0.49022
0.50978
0.54501
0.58023
0.58513
0.53033
0.42955
0.35519
0.35029
0.41487
0.46967
0.5
0.50978
0.50978
0.51468
0.51468
0.51468
0.51957
0.51957
0.52544
0.52544
0.53033
0.53033
0.53523
0.54012
0.54501
0.55479
0.55969
0.57045
0.57534
0.58023
0.58023
0.58023
0.57045
0.55969
0.54501
0.53033
0.50978
0.49511
0.49022
0.48532
0.48532
0.48043
0.47456
0.47456
0.47456
0.47456
0.47456
0.48043
0.48043
0.48532
0.48043
0.48043
0.48043
0.48043
0.48043
0.48043
0.48043
0.48532
0.48532
0.48043
0.48532
0.48532
0.48532
0.48532
0.48043
0.47456
0.47456
0.48532
0.48532
0.49022
0.49511
0.5
0.50978
0.50978
0.49511
0.49022
0.49022
0.49022
0.49022
0.49022
0.49022
0.49022
0.49022
0.49022
0.49022
0.5
0.53033
0.57045
0.59002
0.5499
0.4501
0.34442
0.32485
0.3953
0.46967
0.50489
0.50978
0.51468
0.51468
0.51468
0.50978
0.50978
0.50978
0.51468
0.51468
0.52544
0.53033
0.53523
0.54501
0.55479
0.56458
0.57534
0.58023
0.59002
0.59491
0.5998
0.59491
0.58513
0.57534
0.55479
0.53033
0.50978
0.49511
0.49022
0.48043
0.47456
0.47456
0.47456
0.47456
0.48043
0.48043
0.48043
0.48043
0.48043
0.48043
0.48043
0.48532
0.48532
0.48043
0.48043
0.48532
0.48532
0.48532
0.48532
0.48532
0.48532
0.49022
0.49022
0.49022
0.49022
0.49022
0.49022
0.49022
0.48532
0.49022
0.49022
0.49511
0.49511
0.5
0.49511
0.49022
0.48532
0.48532
0.49022
0.49022
0.49022
0.49022
0.49022
0.49022
0.49022
0.49022
0.50978
0.54501
0.58513
0.59491
0.53523
0.43542
0.36986
0.36497
0.42955
0.48043
0.5
0.50978
0.50978
0.51468
0.51957
0.51957
0.51957
0.52544
0.52544
0.52544
0.53033
0.53033
0.53523
0.54012
0.5499
0.55969
0.57045
0.57534
0.58023
0.58513
0.58513
0.58023
0.57534
0.56458
0.5499
0.53523
0.51957
0.50489
0.49511
0.48532
0.48532
0.48532
0.48043
0.47456
0.47456
0.47456
0.47456
0.48043
0.48043
0.47456
0.47456
0.48043
0.48532
0.48043
0.47456
0.47456
0.47456
0.47456
0.47456
0.47456
0.47456
0.47456
0.48043
0.48532
0.48532
0.49022
0.49022
0.49511
0.5
0.50489
0.50978
0.50978
0.50978
0.50489
0.49511
0.49511
0.49511
0.49511
0.49511
0.49511
0.49511
0.49511
0.49511
0.49511
0.49511
0.50978
0.54501
0.58023
0.59491
0.54012
0.44521
0.37965
0.36986
0.42466
0.47456
0.5
0.50489
0.50978
0.50489
0.50978
0.50978
0.50978
0.51468
0.51468
0.52544
0.53033
0.53523
0.54012
0.5499
0.55479
0.56458
0.57045
0.57534
0.58023
0.58023
0.58023
0.57534
0.55969
0.5499
0.53033
0.51468
0.50489
0.49511
0.48532
0.47456
0.47456
0.47456
0.47456
0.47456
0.47456
0.47456
0.48043
0.48043
0.48043
0.48043
0.48043
0.48043
0.48532
0.48532
0.48532
0.48532
0.48532
0.49022
0.49022
0.49022
0.49022
0.49022
0.49022
0.49511
0.49511
0.49511
0.49511
0.49511
0.49511
0.5
0.5
0.5
0.50489
0.50978
0.49511
0.49022
0.49022
0.49022
0.49511
0.49022
0.48532
0.48532
0.48532
0.48532
0.49022
0.5
0.53033
0.56458
0.58513
0.54501
0.4501
0.35029
0.32975
0.38943
0.45499
0.49022
0.5
0.50489
0.50489
0.50978
0.50978
0.51468
0.51957
0.52544
0.52544
0.53033
0.53033
0.54012
0.54501
0.5499
0.55969
0.57045
0.57534
0.58023
0.58513
0.58513
0.58513
0.58023
0.57045
0.55479
0.53523
0.51468
0.50489
0.49022
0.48532
0.48043
0.48043
0.48043
0.47456
0.47456
0.47456
0.47456
0.48043
0.48532
0.48532
0.48532
0.49022
0.49022
0.49022
0.49022
0.48532
0.48532
0.48532
0.49022
0.49022
0.49022
0.49022
0.49022
0.49022
0.49022
0.49022
0.49022
0.49022
0.49022
0.49022
0.49511
0.5
0.50489
0.50978
0.5
0.49511
0.49022
0.49022
0.49022
0.49022
0.49022
0.48532
0.48532
0.48532
0.48532
0.49022
0.51957
0.55479
0.58513
0.59002
0.49511
0.38454
0.32975
0.36986
0.44521
0.49022
0.50489
0.50978
0.50978
0.51468
0.51468
0.51468
0.51468
0.51468
0.52544
0.52544
0.53033
0.53523
0.54012
0.54501
0.5499
0.55969
0.57534
0.58023
0.58513
0.59002
0.59002
0.58513
0.57534
0.55969
0.54012
0.52544
0.50978
0.5
0.49022
0.48532
0.48532
0.48043
0.48043
0.48043
0.47456
0.48043
0.48043
0.48532
0.48532
0.48532
0.48532
0.48532
0.48532
0.48532
0.49022
0.49022
0.49022
0.48532
0.48532
0.48532
0.48532
0.49022
0.49022
0.49022
0.49022
0.49022
0.49022
0.49022
0.49022
0.49022
0.49511
0.5
0.50489
0.50489
0.49511
0.49022
0.49022
0.48532
0.48532
0.48532
0.48532
0.48532
0.48532
0.48532
0.49022
0.50978
0.54012
0.57045
0.57534
0.51957
0.41977
0.36008
0.35519
0.42466
0.46967
0.49511
0.50489
0.50978
0.50978
0.51468
0.51468
0.51468
0.51468
0.51957
0.52544
0.52544
0.53033
0.53523
0.53523
0.54501
0.5499
0.55479
0.56458
0.57045
0.57534
0.57534
0.57534
0.57045
0.55479
0.54012
0.53033
0.51468
0.50489
0.49511
0.49022
0.48532
0.48532
0.48043
0.48043
0.48532
0.48532
0.48532
0.48532
0.49022
0.49022
0.49022
0.49022
0.49022
0.49022
0.49022
0.49022
0.49022
0.49022
0.49022
0.49022
0.49022
0.49022
0.49022
0.49022
0.49022
0.49022
0.49022
0.49022
0.49511
0.49511
0.5
0.50489
0.50978
0.51468
0.50489
0.50489
0.5
0.49511
0.49511
0.49022
0.49022
0.49022
0.49022
0.49022
0.49022
0.5
0.52544
0.55969
0.58513
0.56458
0.48532
0.3953
0.36008
0.38943
0.4501
0.48532
0.50489
0.50978
0.50978
0.51468
0.51468
0.51957
0.52544
0.52544
0.53033
0.53033
0.53523
0.53523
0.53523
0.54501
0.55479
0.55969
0.57045
0.57534
0.58023
0.58513
0.58513
0.58023
0.57534
0.55969
0.54501
0.53033
0.51468
0.50489
0.49022
0.48532
0.48532
0.48532
0.48043
0.48043
0.48043
0.48532
0.48532
0.48532
0.48532
0.48532
0.48532
0.49022
0.49022
0.49022
0.48532
0.48532
0.48532
0.48532
0.49022
0.49022
0.49022
0.49022
0.49022
0.49022
0.49022
0.49022
0.49022
0.49022
0.49022
0.49022
0.49511
0.50489
0.50489
0.50978
0.50489
0.49511
0.49022
0.49022
0.49022
0.49022
0.49022
0.49022
0.49022
0.49022
0.49022
0.49511
0.51468
0.5499
0.58023
0.58513
0.51468
0.3953
0.32485
0.35029
0.42955
0.48532
0.50489
0.50978
0.50978
0.51468
0.51468
0.51468
0.51957
0.52544
0.53033
0.53033
0.53523
0.53523
0.54012
0.55479
0.55969
0.57045
0.58023
0.59002
0.59491
0.5998
0.5998
0.59491
0.58513
0.57045
0.5499
0.53033
0.50978
0.49511
0.49022
0.48532
0.48043
0.47456
0.47456
0.47456
0.48043
0.48043
0.48043
0.48532
0.48532
0.48532
0.48532
0.48532
0.48043
0.48043
0.48043
0.48043
0.48532
0.48532
0.48532
0.49022
0.48532
0.48532
0.48532
0.48532
0.48532
0.48532
0.48532
0.48532
0.49022
0.49022
0.49511
0.5
0.50489
0.50489
0.50978
0.49511
0.49022
0.48532
0.48532
0.48532
0.48532
0.48532
0.48532
0.48532
0.48532
0.48532
0.49022
0.51957
0.55969
0.58023
0.55479
0.46477
0.37476
0.34442
0.38943
0.44521
0.48532
0.49511
0.50489
0.50489
0.50978
0.50978
0.50978
0.51468
0.51468
0.51468
0.51468
0.51957
0.52544
0.53033
0.54012
0.54501
0.55479
0.55969
0.57045
0.57534
0.58023
0.57534
0.57045
0.55969
0.5499
0.53523
0.51957
0.50489
0.49022
0.48532
0.48043
0.47456
0.47456
0.47456
0.47456
0.47456
0.47456
0.47456
0.48043
0.48043
0.48043
0.48043
0.48043
0.48043
0.47456
0.48043
0.48043
0.48043
0.48532
0.48532
0.48532
0.48532
0.48043
0.48043
0.48532
0.48532
0.48532
0.48532
0.49022
0.49022
0.49511
0.49511
0.5
0.50489
0.50489
0.50489
0.49511
0.49022
0.49022
0.48532
0.48532
0.48532
0.48532
0.48532
0.48532
0.49022
0.49511
0.51468
0.54501
0.57534
0.58023
0.50978
0.41487
0.36008
0.37965
0.43542
0.48043
0.5
0.50489
0.50489
0.50489
0.50978
0.50978
0.51468
0.51468
0.51957
0.52544
0.53033
0.53033
0.53523
0.54012
0.54501
0.55479
0.55969
0.57045
0.57534
0.58023
0.58023
0.57534
0.56458
0.55479
0.54012
0.53033
0.51468
0.50489
0.49511
0.49022
0.48532
0.48532
0.48532
0.48532
0.48532
0.48532
0.48532
0.48532
0.48532
0.49022
0.49022
0.49022
0.49022
0.49022
0.49022
0.49022
0.49022
0.49022
0.49022
0.49022
0.49022
0.49022
0.49022
0.49022
0.49022
0.49022
0.49022
0.49511
0.49511
0.49511
0.50489
0.50489
0.50978
0.50978
0.50489
0.49511
0.49511
0.49511
0.49511
0.49511
0.49022
0.49022
0.48532
0.48532
0.48532
0.48532
0.5
0.53033
0.57045
0.58513
0.54501
0.4501
0.36008
0.34442
0.3953
0.45499
0.49022
0.50489
0.50978
0.50978
0.50978
0.51468
0.51468
0.52544
0.52544
0.53033
0.53033
0.53523
0.53523
0.53523
0.54501
0.55479
0.56458
0.57534
0.58023
0.58513
0.58513
0.58513
0.58023
0.57045
0.55479
0.53523
0.51468
0.50489
0.49022
0.49022
0.48532
0.48532
0.48532
0.48532
0.48532
0.48532
0.48532
0.48532
0.48532
0.48532
0.48532
0.49022
0.49022
0.49022
0.49022
0.49022
0.48532
0.48532
0.48532
0.48532
0.48532
0.48532
0.48532
0.48532
0.48532
0.48043
0.48043
0.48532
0.48532
0.48532
0.49022
0.49022
0.49511
0.5
0.50489
0.49511
0.49022
0.49022
0.48532
0.48532
0.48532
0.48532
0.48043
0.48532
0.48532
0.48532
0.49022
0.51957
0.55479
0.58023
0.56458
0.48043
0.36497
0.31507
0.36986
0.4501
0.49022
0.50489
0.50978
0.50978
0.50978
0.51468
0.51468
0.51957
0.52544
0.52544
0.53033
0.53033
0.53523
0.54012
0.5499
0.55479
0.55969
0.57045
0.58023
0.58513
0.59491
0.59002
0.58513
0.57534
0.55969
0.54012
0.51957
0.50489
0.49511
0.48532
0.48043
0.47456
0.47456
0.47456
0.48043
0.48043
0.48043
0.48532
0.48532
0.48532
0.48532
0.48532
0.48532
0.48532
0.48532
0.49022
0.49022
0.49022
0.49022
0.49022
0.49022
0.48532
0.48532
0.48532
0.48532
0.48532
0.48532
0.48532
0.48532
0.49022
0.49022
0.49511
0.49511
0.50489
0.50489
0.50489
0.49511
0.49022
0.49022
0.49022
0.48532
0.48532
0.49022
0.49022
0.48532
0.48532
0.49022
0.50489
0.53523
0.56458
0.57534
0.51957
0.41977
0.36008
0.35519
0.41487
0.46477
0.49022
0.49511
0.5
0.50489
0.50978
0.50978
0.50978
0.50978
0.51468
0.50978
0.50978
0.51468
0.52544
0.53523
0.54012
0.5499
0.55479
0.55969
0.57045
0.57045
0.57534
0.57045
0.55969
0.55479
0.54012
0.52544
0.51468
0.50489
0.49511
0.49022
0.48532
0.48532
0.48532
0.48043
0.48043
0.48532
0.48532
0.48532
0.48532
0.48532
0.48532
0.48532
0.48532
0.48532
0.48532
0.48532
0.48532
0.48532
0.48532
0.48532
0.48532
0.48532
0.48532
0.48532
0.48532
0.48043
0.48043
0.48043
0.48043
0.48532
0.49022
0.49511
0.5
0.50489
0.49511
0.49022
0.49022
0.48532
0.48532
0.48532
0.48532
0.48043
0.48043
0.48043
0.48043
0.49022
0.50978
0.54501
0.57534
0.58023
0.49022
0.4002
0.35519
0.38454
0.43542
0.48532
0.5
0.50489
0.50489
0.50978
0.50978
0.50978
0.50978
0.50978
0.51468
0.51957
0.52544
0.53033
0.53523
0.54012
0.54501
0.55479
0.55969
0.57045
0.57534
0.58023
0.58023
0.57534
0.55969
0.5499
0.54012
0.52544
0.50978
0.50489
0.49511
0.48532
0.48532
0.48532
0.48532
0.48532
0.48532
0.48532
0.48532
0.48532
0.48532
0.48532
0.48532
0.48532
0.49022
0.49022
0.49511
0.49511
0.49022
0.49022
0.49022
0.49022
0.49022
0.49022
0.49022
0.48532
0.48532
0.48532
0.48532
0.49022
0.49022
0.49022
0.49511
0.50489
0.50978
0.50978
0.5
0.49511
0.49022
0.49022
0.49022
0.49022
0.49022
0.49022
0.49022
0.49022
0.49022
0.49511
0.51957
0.55969
0.58023
0.55969
0.46967
0.36008
0.31996
0.37476
0.44521
0.48532
0.5
0.50489
0.50978
0.50978
0.51468
0.51957
0.51468
0.51468
0.51957
0.52544
0.53033
0.53523
0.54012
0.5499
0.55479
0.56458
0.57534
0.58023
0.58513
0.59002
0.59491
0.58513
0.57045
0.55479
0.54012
0.52544
0.50978
0.49511
0.49022
0.48532
0.48532
0.48043
0.47456
0.46967
0.46967
0.47456
0.47456
0.48043
0.48043
0.48043
0.48043
0.48532
0.48532
0.48043
0.48043
0.47456
0.47456
0.48043
0.48532
0.48532
0.48532
0.48532
0.48043
0.48043
0.48043
0.48043
0.48043
0.48532
0.49022
0.49511
0.49511
0.49511
0.5
0.50489
0.49511
0.49022
0.49022
0.49022
0.48532
0.48532
0.48532
0.48532
0.48532
0.48532
0.48532
0.5
0.52544
0.55969
0.58023
0.54501
0.45499
0.36497
0.33464
0.38943
0.45499
0.49022
0.50489
0.50489
0.50978
0.50978
0.51468
0.51468
0.51957
0.52544
0.52544
0.52544
0.53033
0.53033
0.53523
0.54012
0.5499
0.55969
0.57045
0.57534
0.58023
0.58513
0.58023
0.57534
0.56458
0.55479
0.53523
0.51957
0.50489
0.49511
0.49022
0.48532
0.48043
0.48532
0.48532
0.48532
0.48532
0.48532
0.48532
0.48532
0.48532
0.48532
0.49022
0.49022
0.49022
0.49022
0.49022
0.49022
0.49022
0.49022
0.49022
0.49022
0.49022
0.49022
0.49022
0.48532
0.48532
0.48532
0.48532
0.48532
0.49022
0.49511
0.5
0.50489
0.50978
0.50489
0.49511
0.49022
0.49511
0.49511
0.49511
0.49022
0.49022
0.48532
0.48532
0.48532
0.49022
0.50978
0.54501
0.57534
0.58023
0.50489
0.40998
0.35519
0.37476
0.42466
0.46967
0.49511
0.50489
0.50489
0.50489
0.50978
0.50978
0.50978
0.50978
0.51468
0.51468
0.52544
0.52544
0.52544
0.53033
0.53523
0.54501
0.55479
0.55969
0.57045
0.57534
0.57534
0.57534
0.56458
0.5499
0.54012
0.52544
0.51468
0.50489
0.49511
0.49022
0.49022
0.48532
0.48532
0.48532
0.48043
0.47456
0.48043
0.48043
0.48532
0.48532
0.49022
0.49022
0.49022
0.49022
0.49022
0.49022
0.48532
0.48532
0.48532
0.48532
0.48043
0.48043
0.48532
0.48532
0.48532
0.48532
0.48532
0.48532
0.49022
0.49511
0.49511
0.50489
0.50489
0.50489
0.49511
0.49022
0.48532
0.48532
0.48532
0.48532
0.48532
0.48532
0.48532
0.48532
0.49022
0.50489
0.53523
0.57045
0.58023
0.51957
0.41977
0.35519
0.36497
0.41487
0.46477
0.48532
0.49511
0.49511
0.5
0.50978
0.50978
0.51468
0.51468
0.51468
0.51957
0.52544
0.53033
0.53033
0.53523
0.54012
0.5499
0.55969
0.57045
0.57534
0.58023
0.58513
0.58023
0.57534
0.55969
0.54012
0.53033
0.50978
0.49511
0.49022
0.48532
0.48043
0.48043
0.47456
0.47456
0.48043
0.48043
0.48043
0.48043
0.48043
0.48043
0.48532
0.48043
0.48043
0.48043
0.48043
0.48532
0.48532
0.48532
0.48043
0.48043
0.48043
0.48043
0.48043
0.48043
0.48043
0.48043
0.48532
0.48043
0.48043
0.48532
0.49022
0.49511
0.49511
0.5
0.49511
0.48532
0.48532
0.48532
0.48532
0.48532
0.48532
0.48043
0.48043
0.48532
0.48532
0.49511
0.53033
0.56458
0.58513
0.54012
0.44521
0.33953
0.31507
0.38943
0.45499
0.49022
0.50489
0.50489
0.50489
0.50978
0.51468
0.51468
0.51957
0.52544
0.52544
0.53033
0.53523
0.54012
0.5499
0.55479
0.56458
0.57534
0.58513
0.59002
0.5998
0.5998
0.5998
0.59002
0.57534
0.55969
0.54012
0.52544
0.50978
0.49511
0.49022
0.48532
0.48043
0.48043
0.48043
0.48532
0.48532
0.48532
0.48532
0.48532
0.48043
0.48043
0.48043
0.48043
0.48532
0.48532
0.48532
0.48532
0.48532
0.48532
0.48532
0.48532
0.48532
0.48532
0.48532
0.48532
0.48532
0.49022
0.49022
0.49022
0.49511
0.5
0.50489
0.50978
0.51468
0.50978
0.50489
0.49511
0.49022
0.49022
0.49022
0.49022
0.49022
0.49022
0.48532
0.48532
0.49022
0.50978
0.5499
0.58513
0.59002
0.50489
0.40509
0.35029
0.36986
0.42955
0.47456
0.49511
0.5
0.50489
0.50489
0.50978
0.50978
0.51468
0.51468
0.51957
0.51957
0.52544
0.52544
0.53033
0.53523
0.54501
0.5499
0.55969
0.56458
0.57045
0.57534
0.57534
0.57045
0.55969
0.55479
0.54012
0.51957
0.50489
0.49511
0.48532
0.48532
0.48532
0.48532
0.48043
0.48532
0.48532
0.48532
0.48532
0.48532
0.48532
0.48532
0.48532
0.48532
0.49022
0.49022
0.48532
0.48532
0.49022
0.49022
0.48532
0.48532
0.48532
0.48532
0.48043
0.48043
0.48043
0.48532
0.48532
0.49022
0.49022
0.49511
0.5
0.5
0.50489
0.50489
0.50489
0.49511
0.49511
0.49022
0.49022
0.49022
0.48532
0.48532
0.48532
0.48532
0.49022
0.50489
0.53033
0.56458
0.58023
0.53523
0.44521
0.36497
0.35519
0.40509
0.45988
0.49022
0.5
0.50489
0.50978
0.50978
0.50978
0.50978
0.50978
0.51468
0.51468
0.51468
0.51957
0.52544
0.53033
0.54012
0.5499
0.55969
0.57045
0.57045
0.57534
0.57534
0.57045
0.56458
0.55479
0.54501
0.53033
0.51468
0.50489
0.49511
0.49022
0.48532
0.48532
0.48532
0.48043
0.48043
0.48043
0.48043
0.48532
0.48532
0.48532
0.48532
0.48532
0.48532
0.48532
0.48532
0.48532
0.48532
0.48532
0.48532
0.48532
0.48532
0.49022
0.49022
0.49022
0.49022
0.49022
0.49022
0.49022
0.49022
0.49511
0.50489
0.50978
0.51468
0.51468
0.50489
0.49511
0.49511
0.49022
0.49022
0.49022
0.49022
0.48532
0.48532
0.48043
0.48043
0.49022
0.52544
0.55969
0.58513
0.55479
0.45988
0.36497
0.33464
0.38454
0.44521
0.48532
0.49511
0.5
0.50489
0.50489
0.50978
0.50978
0.50978
0.51468
0.51468
0.51957
0.52544
0.52544
0.53033
0.53523
0.5499
0.55969
0.57045
0.57534
0.58023
0.58023
0.58023
0.57534
0.56458
0.5499
0.53523
0.51957
0.50489
0.49511
0.49022
0.48532
0.48532
0.47456
0.47456
0.47456
0.47456
0.47456
0.48043
0.48532
0.48532
0.48043
0.48043
0.48043
0.48043
0.48043
0.48043
0.48043
0.48043
0.48532
0.48532
0.48532
0.48043
0.48043
0.48043
0.48043
0.48043
0.48043
0.48532
0.48532
0.49022
0.49022
0.49511
0.5
0.50489
0.50489
0.5
0.49022
0.49022
0.49022
0.48532
0.48532
0.48043
0.47456
0.47456
0.48043
0.48532
0.5
0.53033
0.56458
0.58023
0.54012
0.44521
0.34442
0.32485
0.4002
0.46477
0.49511
0.50489
0.50489
0.50978
0.50978
0.51468
0.51468
0.51468
0.51957
0.52544
0.53033
0.53033
0.53523
0.54012
0.5499
0.55969
0.57045
0.58023
0.59002
0.59491
0.59491
0.59002
0.58023
0.57045
0.5499
0.53523
0.51468
0.50489
0.49511
0.49022
0.48532
0.48043
0.48043
0.48043
0.48043
0.48532
0.48532
0.48532
0.48532
0.48532
0.48532
0.48532
0.48532
0.48532
0.48532
0.48532
0.48532
0.48532
0.48532
0.48532
0.48532
0.48532
0.48532
0.48532
0.48532
0.48532
0.48532
0.48532
0.49022
0.49511
0.5
0.50489
0.50489
0.50978
0.50489
0.5
0.49511
0.49511
0.49022
0.49022
0.48532
0.48532
0.48532
0.48532
0.48532
0.49022
0.51468
0.5499
0.57534
0.58023
0.5
0.4002
0.35029
0.37476
0.43542
0.48043
0.5
0.50489
0.50489
0.50978
0.50978
0.50978
0.50978
0.50978
0.51468
0.51468
0.52544
0.53033
0.53523
0.54012
0.54501
0.5499
0.55969
0.57534
0.57534
0.57534
0.57534
0.57045
0.55969
0.55479
0.54012
0.52544
0.50978
0.5
0.49022
0.48532
0.48532
0.48043
0.48043
0.48043
0.48043
0.48043
0.48043
0.48043
0.48043
0.48043
0.48532
0.48532
0.48532
0.49022
0.48532
0.48532
0.48532
0.48532
0.48532
0.48532
0.48532
0.48532
0.48532
0.48532
0.48532
0.48532
0.48532
0.48532
0.48532
0.49022
0.49511
0.5
0.50489
0.50489
0.49511
0.49022
0.49022
0.49022
0.48532
0.48532
0.48532
0.49022
0.49022
0.49022
0.49022
0.5
0.53033
0.56458
0.58023
0.54012
0.44521
0.36497
0.35519
0.40509
0.45988
0.49022
0.50489
0.50978
0.51468
0.51468
0.51468
0.51468
0.51468
0.51957
0.51957
0.51957
0.52544
0.53033
0.53523
0.54012
0.5499
0.55969
0.57045
0.57534
0.58023
0.58023
0.58023
0.57534
0.56458
0.5499
0.53523
0.52544
0.50978
0.5
0.49022
0.49022
0.49022
0.49022
0.49022
0.49022
0.49022
0.49022
0.49022
0.49022
0.49022
0.48532
0.48532
0.48532
0.48532
0.48532
0.48532
0.48532
0.49022
0.49022
0.49022
0.48532
0.48532
0.48532
0.48532
0.48532
0.48532
0.48532
0.48532
0.48532
0.48532
0.49022
0.49511
0.49511
0.50489
0.49511
0.49022
0.49022
0.49022
0.48532
0.48532
0.48043
0.47456
0.47456
0.48043
0.48043
0.49022
0.51468
0.55479
0.58023
0.56458
0.48532
0.36986
0.31996
0.36497
0.44031
0.49022
0.50489
0.50978
0.50978
0.50978
0.51468
0.51957
0.52544
0.52544
0.52544
0.53033
0.53523
0.53523
0.54012
0.5499
0.55969
0.57045
0.58023
0.58513
0.59491
0.59491
0.59491
0.58513
0.58023
0.56458
0.54501
0.52544
0.50978
0.49511
0.49022
0.48532
0.48532
0.48043
0.47456
0.47456
0.47456
0.47456
0.47456
0.47456
0.48043
0.48043
0.48532
0.48532
0.48532
0.48532
0.48532
0.48043
0.48043
0.48532
0.48532
0.48532
0.49022
0.49022
0.48532
0.48532
0.48532
0.48532
0.48532
0.48532
0.49022
0.49022
0.49511
0.5
0.50489
0.49511
0.49022
0.48532
0.48532
0.48532
0.48532
0.48532
0.48532
0.48532
0.48532
0.48532
0.49022
0.50489
0.54012
0.57534
0.58513
0.53033
0.42466
0.33953
0.33464
0.41487
0.46967
0.5
0.50489
0.50489
0.50978
0.50978
0.50978
0.50978
0.50978
0.51468
0.51957
0.52544
0.53033
0.53523
0.53523
0.54012
0.54012
0.55479
0.55969
0.57045
0.57534
0.58023
0.57534
0.57045
0.55969
0.54501
0.52544
0.50978
0.5
0.49022
0.48532
0.48532
0.48532
0.48532
0.48532
0.48043
0.48043
0.48043
0.47456
0.47456
0.48043
0.48532
0.48532
0.48532
0.48532
0.48532
0.48532
0.48532
0.48532
0.48532
0.48043
0.48043
0.48532
0.48532
0.48532
0.48532
0.48532
0.48532
0.48532
0.48532
0.49022
0.49511
0.49511
0.50489
0.5
0.49511
0.49022
0.49022
0.49022
0.49022
0.49022
0.49022
0.49022
0.49022
0.49022
0.49022
0.50978
0.54012
0.57534
0.58023
0.51957
0.42466
0.36008
0.37476
0.42466
0.46967
0.49022
0.5
0.50489
0.50489
0.50978
0.50978
0.51468
0.51468
0.51468
0.51957
0.52544
0.53033
0.53033
0.53523
0.54501
0.55479
0.55969
0.56458
0.57045
0.57534
0.57534
0.57045
0.56458
0.55479
0.54012
0.52544
0.51468
0.50489
0.49511
0.49022
0.48532
0.48532
0.48532
0.48532
0.48532
0.48532
0.48043
0.48043
0.48532
0.48532
0.48532
0.48532
0.48532
0.48532
0.48532
0.48043
0.48043
0.48043
0.48043
0.48532
0.48043
0.48043
0.48043
0.48043
0.48043
0.47456
0.47456
0.47456
0.48532
0.49022
0.49022
0.49511
0.5
0.49511
0.49022
0.48532
0.48532
0.48532
0.48532
0.48532
0.48043
0.48043
0.48532
0.48043
0.48532
0.50489
0.54012
0.57045
0.57534
0.5
0.3953
0.34442
0.36497
0.42955
0.47456
0.49511
0.50489
0.50489
0.50489
0.50489
0.50978
0.50978
0.51468
0.51468
0.51957
0.52544
0.52544
0.53033
0.53523
0.54012
0.5499
0.55479
0.56458
0.57045
0.57534
0.58023
0.57534
0.57045
0.55479
0.54012
0.53033
0.51468
0.5
0.49022
0.48532
0.48043
0.47456
0.47456
0.47456
0.47456
0.47456
0.47456
0.48043
0.48043
0.48043
0.47456
0.47456
0.48043
0.47456
0.48043
0.48043
0.48043
0.48043
0.48043
0.47456
0.47456
0.47456
0.48043
0.48043
0.48043
0.48043
0.48043
0.48043
0.48532
0.49022
0.49022
0.49511
0.5
0.5
0.49022
0.48532
0.48532
0.48532
0.48532
0.48532
0.48043
0.48043
0.48043
0.47456
0.48043
0.49022
0.51957
0.55969
0.58023
0.54012
0.44521
0.33953
0.31507
0.38943
0.45988
0.5
0.50978
0.50978
0.51468
0.51468
0.51957
0.52544
0.52544
0.52544
0.53033
0.53033
0.53523
0.54012
0.54501
0.55479
0.56458
0.57534
0.58023
0.58513
0.59491
0.59491
0.5998
0.59491
0.58023
0.55969
0.54012
0.52544
0.50978
0.49511
0.49022
0.48532
0.48043
0.47456
0.47456
0.48043
0.48043
0.48043
0.48043
0.48532
0.48043
0.48043
0.48043
0.48043
0.48043
0.48532
0.48532
0.48043
0.48532
0.48532
0.48532
0.48532
0.48532
0.48043
0.48043
0.48532
0.48532
0.49022
0.49022
0.49022
0.49511
0.49511
0.5
0.50489
0.50489
0.5
0.49511
0.49022
0.48532
0.48532
0.48532
0.48532
0.48043
0.47456
0.47456
0.48043
0.49511
0.52544
0.56458
0.58023
0.54012
0.44521
0.36008
0.34442
0.3953
0.4501
0.48532
0.5
0.50489
0.50489
0.50978
0.50978
0.50978
0.50978
0.51468
0.51957
0.52544
0.52544
0.53033
0.53033
0.53523
0.54501
0.55479
0.55969
0.56458
0.57045
0.57045
0.57045
0.56458
0.55479
0.54012
0.52544
0.50978
0.5
0.49022
0.48532
0.48043
0.48043
0.47456
0.47456
0.48043
0.48532
0.48532
0.48532
0.48532
0.48532
0.48043
0.48043
0.48043
0.48043
0.48532
0.48532
0.48532
0.48532
0.48532
0.48532
0.48532
0.48532
0.48532
0.48532
0.48532
0.49022
0.49022
0.49022
0.49511
0.5
0.50489
0.50978
0.50978
0.50978
0.50489
0.5
0.49511
0.49511
0.49022
0.49022
0.49022
0.49022
0.49022
0.49511
0.49511
0.50978
0.54012
0.57534
0.58023
0.53033
0.43542
0.36497
0.36008
0.41487
0.46967
0.49511
0.50489
0.50489
0.50978
0.50978
0.51468
0.51468
0.51468
0.51957
0.52544
0.53033
0.53033
0.53523
0.54012
0.5499
0.55479
0.55969
0.57045
0.57534
0.58023
0.58023
0.58023
0.57045
0.55969
0.54501
0.53033
0.51468
0.50489
0.49511
0.49022
0.48532
0.48532
0.48532
0.48532
0.48532
0.48532
0.48532
0.48532
0.48532
0.48532
0.48532
0.48532
0.48532
0.49022
0.49022
0.49022
0.48532
0.48532
0.48532
0.49022
0.49022
0.48532
0.48532
0.48532
0.48532
0.48532
0.48532
0.49022
0.49022
0.49511
0.5
0.50489
0.50489
0.5
0.49511
0.49511
0.49022
0.49022
0.48532
0.48532
0.48043
0.48043
0.48043
0.48532
0.49022
0.51468
0.5499
0.57534
0.58023
0.49511
0.38943
0.32975
0.36008
0.42955
0.47456
0.49511
0.5
0.50489
0.50978
0.50978
0.50978
0.51468
0.51957
0.52544
0.52544
0.52544
0.53033
0.53523
0.54012
0.5499
0.55969
0.57045
0.58023
0.58023
0.58513
0.58513
0.58023
0.57534
0.55969
0.54012
0.52544
0.50489
0.49511
0.48532
0.47456
0.47456
0.47456
0.47456
0.47456
0.48043
0.48043
0.48043
0.48043
0.48043
0.48043
0.48043
0.48043
0.48043
0.48043
0.48043
0.47456
0.47456
0.47456
0.47456
0.47456
0.48043
0.48043
0.48532
0.48532
0.48043
0.48043
0.48043
0.48043
0.48043
0.48532
0.49022
0.49511
0.5
0.50489
0.5
0.49511
0.49022
0.49022
0.49022
0.48532
0.48043
0.47456
0.47456
0.47456
0.47456
0.48043
0.5
0.53523
0.57534
0.58023
0.51468
0.40509
0.32485
0.31996
0.41487
0.46967
0.49511
0.5
0.50489
0.50978
0.50978
0.50978
0.51468
0.51468
0.51957
0.52544
0.53033
0.53523
0.53523
0.54012
0.5499
0.55969
0.57045
0.57534
0.58023
0.58513
0.58513
0.58023
0.57534
0.55969
0.54012
0.52544
0.50978
0.49511
0.48532
0.48532
0.47456
0.47456
0.47456
0.47456
0.47456
0.48043
0.48043
0.48532
0.48532
0.48532
0.48532
0.48532
0.48043
0.48043
0.48043
0.48043
0.48043
0.48043
0.48043
0.48043
0.48043
0.48043
0.48043
0.48043
0.48043
0.48043
0.48043
0.48043
0.48043
0.48532
0.48532
0.49022
0.49511
0.49511
0.49511
0.49022
0.48532
0.48532
0.48043
0.48043
0.48043
0.47456
0.47456
0.47456
0.48043
0.48532
0.51468
0.5499
0.57534
0.58023
0.48532
0.38943
0.35519
0.37965
0.43542
0.48043
0.49511
0.5
0.50489
0.50489
0.50489
0.50978
0.51468
0.51468
0.51957
0.52544
0.52544
0.53033
0.53523
0.54012
0.54501
0.55479
0.55969
0.57045
0.57534
0.57534
0.57534
0.57045
0.55969
0.5499
0.53523
0.51957
0.50489
0.49511
0.49022
0.48532
0.48532
0.48532
0.48532
0.48532
0.48532
0.48532
0.48532
0.48532
0.48532
0.48532
0.48532
0.49022
0.48532
0.48532
0.48532
0.49022
0.49022
0.48532
0.48532
0.49022
0.49022
0.49022
0.49022
0.49022
0.49022
0.48532
0.48532
0.48532
0.49022
0.49511
0.49511
0.50489
0.50978
0.50978
0.50489
0.5
0.49511
0.49022
0.49022
0.49022
0.49022
0.48532
0.48532
0.48532
0.48532
0.49511
0.52544
0.56458
0.58023
0.54501
0.45988
0.37476
0.35519
0.40509
0.45988
0.49022
0.50489
0.50978
0.50978
0.50978
0.50978
0.50978
0.51468
0.51468
0.52544
0.52544
0.53033
0.53523
0.53523
0.54012
0.5499
0.55969
0.56458
0.57045
0.57534
0.57534
0.57045
0.57045
0.55969
0.5499
0.53523
0.52544
0.50978
0.50489
0.49511
0.49022
0.49022
0.48532
0.48532
0.48532
0.48532
0.48532
0.48532
0.48532
0.48532
0.49022
0.49022
0.48532
0.49022
0.49022
0.49022
0.49022
0.49022
0.49022
0.49022
0.49022
0.49022
0.49022
0.49022
0.49022
0.49511
0.49511
0.49511
0.49511
0.49511
0.5
0.50489
0.50978
0.50978
0.50978
0.50489
0.5
0.49511
0.49511
0.49511
0.49511
0.49511
0.49022
0.49022
0.49022
0.49022
0.5
0.53033
0.57045
0.59491
0.55969
0.46477
0.35519
0.32485
0.38943
0.45499
0.5
0.50978
0.50978
0.51468
0.51468
0.52544
0.52544
0.53033
0.53033
0.53523
0.53523
0.54012
0.54012
0.5499
0.55479
0.56458
0.57534
0.58513
0.59491
0.5998
0.5998
0.5998
0.59002
0.58023
0.55969
0.54012
0.51957
0.50489
0.49511
0.49022
0.48532
0.48043
0.47456
0.48043
0.48043
0.48532
0.48532
0.48532
0.48043
0.48043
0.48043
0.48043
0.48043
0.48043
0.48532
0.48532
0.48532
0.48532
0.48532
0.48532
0.48532
0.48043
0.48043
0.47456
0.48043
0.48532
0.48532
0.48532
0.48532
0.49022
0.49022
0.49511
0.5
0.50489
0.50489
0.50978
0.49511
0.49022
0.49022
0.48532
0.48532
0.48532
0.48532
0.48532
0.48532
0.48532
0.49022
0.50978
0.54501
0.58023
0.58513
0.50489
0.4002
0.33953
0.36008
0.42466
0.47456
0.49511
0.5
0.50489
0.50489
0.50978
0.50978
0.50978
0.50978
0.51468
0.51468
0.52544
0.52544
0.53523
0.54012
0.54501
0.55479
0.55969
0.57045
0.57534
0.58023
0.57534
0.57534
0.56458
0.55479
0.54012
0.52544
0.50978
0.5
0.49022
0.48532
0.48043
0.47456
0.47456
0.47456
0.47456
0.46967
0.46967
0.46967
0.47456
0.47456
0.47456
0.48043
0.48532
0.48043
0.48043
0.48043
0.48043
0.48532
0.48532
0.48532
0.48532
0.48532
0.48532
0.48532
0.49022
0.48532
0.48532
0.48532
0.49022
0.49022
0.49511
0.5
0.50489
0.50489
0.49511
0.49022
0.48532
0.48532
0.48532
0.48532
0.48532
0.48532
0.48532
0.49022
0.49022
0.49022
0.50978
0.54501
0.57045
0.57534
0.50489
0.40509
0.35519
0.37965
0.42955
0.47456
0.49511
0.50489
0.50489
0.50489
0.50489
0.50489
0.50978
0.50978
0.51468
0.51468
0.51957
0.52544
0.53033
0.53033
0.54012
0.5499
0.55479
0.56458
0.57045
0.57534
0.57534
0.57045
0.56458
0.5499
0.53523
0.52544
0.50978
0.5
0.49022
0.48532
0.48532
0.48043
0.48043
0.48532
0.48532
0.48532
0.48532
0.48532
0.48532
0.48532
0.48532
0.48532
0.48532
0.48043
0.48043
0.48532
0.48532
0.48532
0.49022
0.49022
0.49022
0.49022
0.49022
0.49022
0.49022
0.48532
0.48532
0.48532
0.48532
0.49022
0.49511
0.50489
0.50489
0.50978
0.5
0.49511
0.49022
0.49022
0.49022
0.49022
0.49511
0.49511
0.49511
0.49022
0.49022
0.5
0.52544
0.55969
0.58513
0.56458
0.48043
0.38454
0.35519
0.38943
0.4501
0.49022
0.50489
0.50978
0.50978
0.51468
0.51957
0.52544
0.51957
0.51957
0.52544
0.52544
0.53033
0.53523
0.54012
0.5499
0.55479
0.55969
0.57045
0.57534
0.58023
0.58513
0.58513
0.58023
0.57534
0.55969
0.54501
0.53033
0.50978
0.50489
0.49511
0.48532
0.48532
0.48043
0.48043
0.47456
0.47456
0.48043
0.48532
0.49022
0.49022
0.49022
0.49022
0.49022
0.49022
0.48532
0.49022
0.49022
0.49022
0.49022
0.48532
0.49022
0.49022
0.49022
0.49022
0.49022
0.49511
0.49511
0.49511
0.49511
0.49511
0.50489
0.50489
0.50978
0.50978
0.51468
0.50489
0.5
0.49511
0.49511
0.49511
0.49022
0.49022
0.48532
0.48532
0.48532
0.48532
0.49022
0.51957
0.55969
0.58513
0.5499
0.45499
0.35029
0.32485
0.38943
0.45988
0.5
0.50978
0.50978
0.50978
0.51468
0.51468
0.52544
0.52544
0.52544
0.53033
0.53033
0.53523
0.54012
0.5499
0.55479
0.55969
0.57045
0.58023
0.58513
0.59491
0.59491
0.59491
0.58513
0.57534
0.55969
0.54012
0.52544
0.50489
0.49511
0.48532
0.48043
0.48043
0.47456
0.47456
0.47456
0.48043
0.47456
0.47456
0.47456
0.48043
0.48043
0.48532
0.48532
0.48532
0.48532
0.49022
0.48532
0.48532
0.48532
0.48532
0.48532
0.48532
0.48532
0.48532
0.48532
0.49022
0.48532
0.48532
0.48532
0.49022
0.49511
0.5
0.50489
0.50489
0.50489
0.49511
0.49511
0.49022
0.49022
0.48532
0.48532
0.48532
0.48532
0.48532
0.48532
0.49511
0.51957
0.55479
0.58513
0.57534
0.5
0.40509
0.35519
0.37965
0.43542
0.48043
0.5
0.50978
0.50978
0.50978
0.51468
0.51468
0.51468
0.51957
0.52544
0.52544
0.53033
0.53033
0.54012
0.54501
0.5499
0.55479
0.57045
0.57534
0.58023
0.58023
0.58023
0.57534
0.56458
0.55479
0.54012
0.52544
0.51468
0.50489
0.49511
0.49022
0.48532
0.48043
0.48043
0.48043
0.48532
0.48532
0.48532
0.48532
0.48532
0.48532
0.48532
0.48532
0.48532
0.48532
0.48532
0.48532
0.49022
0.49022
0.49022
0.49022
0.49022
0.48532
0.48532
0.48532
0.49022
0.49022
0.49022
0.49022
0.49511
0.5
0.50489
0.50489
0.50489
0.50489
0.49511
0.49022
0.49022
0.49022
0.49022
0.49022
0.49022
0.49022
0.49022
0.49022
0.5
0.53033
0.56458
0.58513
0.55479
0.46967
0.38454
0.36497
0.40509
0.45988
0.49511
0.50489
0.50978
0.50978
0.51468
0.51468
0.51468
0.51468
0.51468
0.51957
0.52544
0.52544
0.53033
0.53523
0.54012
0.5499
0.55969
0.57045
0.57534
0.57534
0.57534
0.57534
0.57045
0.55969
0.5499
0.53523
0.51468
0.50489
0.49511
0.48532
0.48532
0.48532
0.48532
0.48532
0.48532
0.48532
0.48532
0.48532
0.48532
0.49022
0.48532
0.48532
0.48532
0.48532
0.49022
0.49022
0.49022
0.49022
0.49022
0.49022
0.49022
0.49022
0.49022
0.49022
0.49022
0.49022
0.49022
0.49022
0.49511
0.5
0.50489
0.50489
0.50978
0.50489
0.5
0.49511
0.49511
0.49511
0.49511
0.49022
0.49022
0.49022
0.49022
0.49022
0.49511
0.50978
0.54501
0.58023
0.58513
0.51957
0.40998
0.33464
0.35519
0.41977
0.47456
0.5
0.50489
0.50978
0.50978
0.51468
0.51468
0.51957
0.51957
0.51957
0.51957
0.52544
0.53033
0.53523
0.54012
0.5499
0.55479
0.57045
0.57534
0.58513
0.59002
0.59002
0.58513
0.58023
0.55969
0.54501
0.53033
0.51468
0.50489
0.49511
0.48532
0.48043
0.47456
0.47456
0.47456
0.47456
0.47456
0.48043
0.48532
0.48532
0.48532
0.48532
0.48532
0.48532
0.48532
0.48532
0.48532
0.48532
0.48532
0.48532
0.48532
0.48532
0.48532
0.49022
0.48532
0.48532
0.48532
0.48532
0.48532
0.48532
0.49022
0.49022
0.49511
0.5
0.50489
0.49511
0.49022
0.49022
0.49022
0.49022
0.48532
0.48043
0.48043
0.48043
0.48043
0.48532
0.49022
0.51957
0.55969
0.58023
0.5499
0.45988
0.35519
0.32485
0.38454
0.4501
0.49022
0.50489
0.50489
0.50978
0.50978
0.51468
0.51468
0.51468
0.51468
0.52544
0.52544
0.53033
0.53523
0.54012
0.5499
0.55479
0.56458
0.57534
0.58023
0.58513
0.58513
0.59002
0.58023
0.57045
0.55479
0.54012
0.52544
0.50978
0.49511
0.49022
0.48532
0.48532
0.48043
0.48043
0.48043
0.48043
0.48043
0.48043
0.48532
0.48532
0.49022
0.49022
0.49022
0.49022
0.49022
0.48532
0.48532
0.48532
0.48532
0.48532
0.48532
0.48532
0.48532
0.49022
0.49022
0.48532
0.48532
0.48532
0.48532
0.49022
0.49511
0.49511
0.5
0.50489
0.49022
0.49022
0.49022
0.49022
0.48532
0.48532
0.48532
0.49022
0.48532
0.48532
0.48532
0.5
0.53033
0.56458
0.58513
0.54501
0.4501
0.36497
0.35519
0.40509
0.45499
0.49022
0.5
0.50489
0.50489
0.50489
0.50978
0.50978
0.50978
0.51468
0.51468
0.51957
0.51957
0.52544
0.53033
0.53523
0.54012
0.5499
0.55479
0.55969
0.57045
0.57534
0.57045
0.57045
0.55969
0.54501
0.53033
0.51468
0.50489
0.49511
0.49022
0.48532
0.48532
0.48532
0.48532
0.48532
0.48532
0.48532
0.48532
0.48532
0.48532
0.48532
0.48043
0.48043
0.48043
0.48043
0.48532
0.48532
0.48532
0.48532
0.48532
0.48532
0.48043
0.48043
0.48532
0.48532
0.48532
0.49022
0.49022
0.49022
0.49511
0.49511
0.5
0.50489
0.50489
0.49511
0.49022
0.49022
0.48532
0.48532
0.48532
0.48532
0.48532
0.48532
0.48532
0.49022
0.50489
0.53033
0.56458
0.57534
0.53523
0.44031
0.36497
0.35519
0.41487
0.46477
0.49511
0.50489
0.50489
0.50978
0.51468
0.51468
0.51957
0.51468
0.51468
0.51468
0.51957
0.52544
0.52544
0.53033
0.54012
0.5499
0.55479
0.55969
0.56458
0.57045
0.57045
0.57045
0.55969
0.5499
0.54012
0.53033
0.51468
0.50489
0.49511
0.49022
0.48532
0.48532
0.48043
0.48043
0.48043
0.48043
0.48043
0.48043
0.48532
0.48532
0.48532
0.48532
0.48532
0.48532
0.48532
0.48532
0.48532
0.48043
0.48043
0.48532
0.48532
0.49022
0.49022
0.48532
0.48532
0.48532
0.48532
0.48532
0.49022
0.49511
0.49511
0.49511
0.5
0.49022
0.48532
0.48532
0.48532
0.48532
0.48532
0.48532
0.48532
0.48043
0.48532
0.48532
0.48532
0.50489
0.54012
0.57534
0.58023
0.50978
0.3953
0.31996
0.31507
0.41977
0.48043
0.50489
0.50978
0.50978
0.51468
0.51468
0.50978
0.51468
0.51957
0.52544
0.52544
0.53033
0.53523
0.54012
0.54501
0.55479
0.56458
0.57534
0.58513
0.59002
0.59491
0.59491
0.59002
0.58023
0.57045
0.5499
0.53033
0.50978
0.5
0.49022
0.48532
0.48532
0.48532
0.48532
0.48043
0.48043
0.48043
0.48532
0.48532
0.48532
0.48532
0.48043
0.48043
0.48043
0.48532
0.48532
0.48532
0.48532
0.48532
0.48532
0.48532
0.48532
0.48532
0.48532
0.48532
0.48532
0.48532
0.48532
0.48532
0.49022
0.49022
0.49511
0.5
0.50489
0.50489
0.49511
0.49022
0.49022
0.48532
0.48532
0.48043
0.48043
0.48043
0.48043
0.48532
0.48532
0.49511
0.53033
0.56458
0.58513
0.54012
0.44521
0.35029
0.32975
0.3953
0.45499
0.49022
0.5
0.50489
0.50489
0.50978
0.50978
0.50978
0.51468
0.51468
0.51957
0.52544
0.52544
0.53033
0.53523
0.54012
0.5499
0.55479
0.55969
0.57045
0.57534
0.58023
0.57534
0.57045
0.55969
0.54501
0.53033
0.51468
0.50489
0.49511
0.48532
0.48532
0.47456
0.47456
0.48043
0.48043
0.48532
0.48532
0.48532
0.48532
0.48532
0.48532
0.48532
0.48532
0.48532
0.48532
0.48532
0.48532
0.48532
0.48532
0.48532
0.48532
0.48532
0.48532
0.48532
0.48043
0.48532
0.48532
0.48532
0.49022
0.49511
0.5
0.50489
0.50489
0.5
0.49511
0.49022
0.49022
0.49022
0.49022
0.48532
0.48532
0.48532
0.48532
0.48532
0.48532
0.50489
0.54012
0.57045
0.58023
0.51957
0.41977
0.36008
0.35519
0.41487
0.46477
0.49022
0.5
0.50489
0.50978
0.50978
0.50978
0.50978
0.50978
0.51468
0.51468
0.52544
0.52544
0.53033
0.53523
0.54012
0.5499
0.55969
0.56458
0.57045
0.57534
0.57534
0.57534
0.57045
0.55969
0.54501
0.53033
0.51957
0.50978
0.5
0.49511
0.49022
0.48532
0.48043
0.48043
0.48532
0.48532
0.49022
0.49022
0.49022
0.49022
0.48532
0.48532
0.49022
0.49022
0.49022
0.49022
0.49022
0.49022
0.49022
0.49022
0.49022
0.49511
0.49511
0.49022
0.49022
0.49022
0.49022
0.49022
0.49511
0.49511
0.50489
0.50978
0.50978
0.5
0.49022
0.49022
0.49022
0.49022
0.49022
0.49022
0.49022
0.48532
0.48532
0.49022
0.49511
0.51957
0.55479
0.58023
0.55969
0.47456
0.38454
0.35029
0.38454
0.44521
0.48532
0.5
0.50489
0.50978
0.50978
0.51468
0.51468
0.51468
0.51957
0.51957
0.51957
0.52544
0.53033
0.53523
0.54012
0.5499
0.55479
0.57045
0.57534
0.58023
0.58513
0.58513
0.58023
0.57534
0.55969
0.54012
0.52544
0.50978
0.5
0.49511
0.49022
0.48532
0.48532
0.48043
0.48532
0.48532
0.48532
0.48532
0.48532
0.48532
0.48532
0.48532
0.48532
0.48532
0.48532
0.48532
0.48532
0.49022
0.49022
0.49022
0.49022
0.48532
0.48532
0.48532
0.48532
0.48532
0.48532
0.48532
0.48532
0.49022
0.49511
0.50489
0.50489
0.50978
0.49511
0.49511
0.49511
0.49511
0.49022
0.49022
0.48532
0.48532
0.48532
0.49022
0.49022
0.49511
0.52544
0.56458
0.58513
0.55479
0.45988
0.35029
0.31996
0.38454
0.45988
0.5
0.50978
0.50978
0.50978
0.51468
0.51468
0.51957
0.52544
0.52544
0.53033
0.53523
0.53523
0.53523
0.54012
0.5499
0.55969
0.57534
0.58513
0.59002
0.59491
0.5998
0.59491
0.58513
0.57534
0.55969
0.54012
0.51957
0.50489
0.49022
0.48532
0.48532
0.48043
0.47456
0.47456
0.47456
0.48043
0.48043
0.48043
0.48043
0.48532
0.48532
0.48532
0.48532
0.48532
0.48532
0.48532
0.48532
0.49022
0.49022
0.49022
0.49022
0.49022
0.49022
0.49022
0.49022
0.48532
0.48532
0.48532
0.48532
0.49022
0.49022
0.49511
0.50489
0.50489
0.49511
0.49022
0.49022
0.49022
0.49022
0.48532
0.48532
0.48532
0.48532
0.48043
0.48043
0.49022
0.52544
0.56458
0.58023
0.54012
0.4501
0.36497
0.34442
0.3953
0.4501
0.48532
0.49511
0.5
0.50489
0.50489
0.50489
0.50978
0.51468
0.51468
0.51957
0.51957
0.52544
0.52544
0.53033
0.53523
0.54501
0.5499
0.55479
0.55969
0.57045
0.57045
0.57045
0.57045
0.55969
0.54501
0.53033
0.51468
0.50489
0.49511
0.49022
0.48532
0.48043
0.48043
0.48043
0.48043
0.48043
0.48532
0.48532
0.48532
0.48532
0.49022
0.49022
0.48532
0.48532
0.48532
0.48532
0.48532
0.48532
0.48532
0.48532
0.49022
0.49022
0.49022
0.48532
0.48532
0.48532
0.49022
0.49022
0.49022
0.49511
0.49511
0.49511
0.50489
0.5
0.49511
0.49022
0.49022
0.48532
0.48532
0.48043
0.48043
0.48532
0.48043
0.48043
0.48532
0.5
0.53033
0.56458
0.58023
0.53033
0.44031
0.36497
0.35029
0.40998
0.45988
0.49022
0.49511
0.50489
0.50489
0.50489
0.50489
0.50978
0.50978
0.51468
0.51468
0.51468
0.51957
0.52544
0.53033
0.54012
0.5499
0.55479
0.57045
0.57534
0.57534
0.58023
0.57534
0.57045
0.55969
0.5499
0.53523
0.51957
0.50489
0.49511
0.48532
0.48532
0.48532
0.48532
0.48532
0.48043
0.47456
0.47456
0.48043
0.48532
0.48532
0.48532
0.49022
0.49511
0.49511
0.49511
0.49511
0.49511
0.49022
0.48532
0.48532
0.48532
0.48043
0.48043
0.48043
0.48043
0.48043
0.48532
0.48532
0.49022
0.49511
0.49511
0.50489
0.50489
0.50489
0.49511
0.49511
0.49511
0.49511
0.49022
0.49022
0.49022
0.49022
0.49022
0.49022
0.49022
0.50489
0.53523
0.57534
0.58513
0.54012
0.42955
0.33953
0.32485
0.3953
0.4501
0.48043
0.49022
0.49511
0.5
0.50489
0.50489
0.50978
0.51468
0.51468
0.51957
0.52544
0.52544
0.53033
0.53523
0.54501
0.55479
0.56458
0.57534
0.58023
0.58513
0.58513
0.58513
0.57534
0.56458
0.5499
0.53033
0.51468
0.5
0.49022
0.48532
0.47456
0.47456
0.47456
0.47456
0.47456
0.47456
0.47456
0.47456
0.47456
0.48043
0.48043
0.48043
0.48043
0.47456
0.47456
0.48043
0.48532
0.48532
0.48532
0.48532
0.48532
0.48532
0.48532
0.48532
0.48532
0.48532
0.48532
0.48532
0.49022
0.49511
0.5
0.50489
0.50489
0.50978
0.5
0.49511
0.49022
0.49022
0.48532
0.48532
0.48532
0.48532
0.48532
0.48532
0.48532
0.50489
0.53523
0.57534
0.58513
0.54012
0.43542
0.33953
0.32485
0.40509
0.46967
0.5
0.50978
0.50978
0.50978
0.51468
0.51957
0.52544
0.52544
0.52544
0.52544
0.53033
0.53523
0.54012
0.5499
0.55479
0.57045
0.57534
0.58023
0.59002
0.59491
0.5998
0.59491
0.58513
0.57534
0.55969
0.54012
0.52544
0.50489
0.49511
0.49022
0.48532
0.48532
0.48532
0.48532
0.48532
0.48532
0.48532
0.48532
0.48532
0.48532
0.48532
0.48532
0.48532
0.48532
0.48532
0.48532
0.48532
0.48532
0.48532
0.48532
0.48532
0.48532
0.48043
0.48043
0.48043
0.48043
0.48043
0.48043
0.48532
0.49022
0.49511
0.49511
0.50489
0.50489
0.49511
0.49022
0.49022
0.49022
0.48532
0.48532
0.48532
0.48532
0.48532
0.48043
0.48532
0.50489
0.53523
0.57045
0.58023
0.52544
0.42466
0.36008
0.35519
0.41487
0.46477
0.49022
0.49511
0.5
0.50489
0.50489
0.50978
0.50978
0.51468
0.51468
0.51957
0.52544
0.52544
0.53033
0.53523
0.54501
0.5499
0.55479
0.56458
0.57045
0.57534
0.57534
0.57534
0.57045
0.55479
0.54501
0.53033
0.51468
0.50489
0.49511
0.49022
0.48532
0.48532
0.48043
0.48043
0.48043
0.48043
0.48532
0.48532
0.48532
0.48532
0.49022
0.49022
0.49022
0.49022
0.49022
0.49022
0.49022
0.48532
0.48532
0.48532
0.48532
0.48532
0.48532
0.48532
0.48532
0.49022
0.49022
0.49022
0.49022
0.49511
0.49511
0.5
0.50489
0.50978
0.5
0.49511
0.49022
0.48532
0.48532
0.48532
0.48532
0.48532
0.48532
0.48532
0.48532
0.50489
0.53523
0.57045
0.57534
0.51957
0.41977
0.35519
0.36497
0.41487
0.46967
0.49022
0.49511
0.50489
0.50489
0.50489
0.50978
0.50978
0.50978
0.51468
0.51468
0.51957
0.52544
0.52544
0.53033
0.54012
0.5499
0.55479
0.55969
0.57045
0.57534
0.57534
0.57534
0.57045
0.55479
0.54012
0.52544
0.50978
0.49511
0.49022
0.48532
0.48532
0.48043
0.48043
0.48043
0.48532
0.48532
0.48532
0.48532
0.48532
0.48532
0.48532
0.48532
0.48532
0.48532
0.48532
0.48532
0.48532
0.48532
0.48532
0.48532
0.48532
0.48532
0.48532
0.48532
0.48532
0.48532
0.48532
0.49022
0.49022
0.49022
0.49511
0.5
0.50489
0.5
0.49022
0.48532
0.48532
0.48532
0.48532
0.48043
0.48043
0.48043
0.47456
0.47456
0.48532
0.5
0.53523
0.57534
0.58023
0.51468
0.4002
0.31507
0.33464
0.40998
0.46967
0.49511
0.50489
0.50978
0.50978
0.51468
0.51468
0.51468
0.51468
0.51957
0.52544
0.53033
0.53033
0.53523
0.54501
0.55479
0.55969
0.57045
0.58023
0.59002
0.59491
0.5998
0.59491
0.58513
0.57045
0.5499
0.52544
0.50978
0.49511
0.49022
0.48043
0.47456
0.46967
0.46967
0.46967
0.46967
0.47456
0.47456
0.47456
0.48532
0.48532
0.48043
0.48043
0.48043
0.48043
0.48532
0.48532
0.48532
0.48532
0.49022
0.48532
0.48532
0.48532
0.48532
0.48532
0.48532
0.48532
0.48532
0.48532
0.48532
0.49022
0.49511
0.49511
0.50489
0.50489
0.49511
0.48532
0.48532
0.48532
0.48532
0.48532
0.48532
0.48532
0.48532
0.48532
0.48043
0.5
0.52544
0.5499
0.55479
0.48532
0.38454
0.32485
0.34442
0.41487
0.47456
0.5
0.50978
0.51468
0.51468
0.51468
0.51468
0.51957
0.52544
0.52544
0.53033
0.53033
0.53523
0.53523
0.54012
0.54012
0.5499
0.55479
0.55969
0.55969
0.55969
0.55969
0.55969
0.55479
0.54012
0.53033
0.50978
0.49511
0.48532
0.47456
0.47456
0.47456
0.47456
0.47456
0.47456
0.47456
0.48043
0.48532
0.48043
0.48043
0.48043
0.48043
0.48043
0.48532
0.48532
0.48532
0.49022
0.49022
0.49022
0.49022
0.49022
0.49022
0.49022
0.49022
0.49022
0.49022
0.49022
0.49022
0.48532
0.49022
0.49022
0.49511
0.5
0.50489
0.49511
0.49022
0.49022
0.49022
0.49022
0.49022
0.49022
0.48532
0.48532
0.48532
0.48532
0.49022
0.50978
0.54501
0.57534
0.58023
0.5
0.40509
0.35519
0.38454
0.43542
0.48043
0.5
0.50489
0.50978
0.50978
0.50978
0.51468
0.51468
0.51957
0.51957
0.52544
0.53033
0.53033
0.53523
0.54012
0.54012
0.5499
0.55479
0.56458
0.57045
0.57534
0.57534
0.57045
0.55969
0.5499
0.53523
0.52544
0.50978
0.5
0.49022
0.48532
0.48043
0.47456
0.47456
0.47456
0.48532
0.48532
0.48532
0.49022
0.49022
0.48532
0.48532
0.48532
0.48532
0.48532
0.48532
0.49022
0.49022
0.49022
0.48532
0.48532
0.48532
0.48532
0.49022
0.48532
0.48532
0.48532
0.48532
0.49022
0.49511
0.49511
0.50489
0.50978
0.50978
0.5
0.49511
0.49022
0.49022
0.49022
0.49022
0.48532
0.48532
0.48532
0.48532
0.48532
0.49511
0.52544
0.56458
0.58023
0.54012
0.44521
0.36497
0.35029
0.4002
0.45499
0.48532
0.5
0.50489
0.50489
0.50978
0.51468
0.51468
0.51468
0.51957
0.51957
0.52544
0.52544
0.53033
0.53523
0.54501
0.5499
0.55969
0.57045
0.57534
0.58023
0.58023
0.58023
0.57534
0.57045
0.5499
0.53523
0.51957
0.50978
0.49511
0.49022
0.48532
0.48532
0.48043
0.48043
0.48532
0.48532
0.48532
0.48532
0.48532
0.48532
0.48532
0.48532
0.49022
0.49022
0.49022
0.49022
0.49022
0.49022
0.49022
0.49022
0.49022
0.49022
0.49022
0.48532
0.48532
0.48532
0.48532
0.48532
0.49022
0.49511
0.5
0.50489
0.50978
0.50489
0.49511
0.49022
0.49022
0.49022
0.48532
0.48532
0.48532
0.48532
0.48532
0.48043
0.48532
0.50489
0.54012
0.57534
0.58023
0.50489
0.38943
0.31507
0.31018
0.41487
0.47456
0.5
0.50489
0.50978
0.50978
0.51468
0.51468
0.51468
0.51468
0.52544
0.53033
0.53033
0.53523
0.54012
0.5499
0.55479
0.55969
0.57534
0.58513
0.59491
0.59491
0.5998
0.59002
0.58023
0.57045
0.5499
0.53033
0.50978
0.49511
0.49022
0.48532
0.47456
0.47456
0.47456
0.47456
0.47456
0.47456
0.47456
0.48043
0.48043
0.48532
0.48532
0.48532
0.48532
0.48532
0.48532
0.48532
0.49022
0.49022
0.49022
0.49022
0.49022
0.49022
0.49022
0.49022
0.49022
0.49022
0.48532
0.48532
0.49022
0.49511
0.49511
0.50489
0.50489
0.5
0.49022
0.49022
0.49022
0.48532
0.48532
0.48532
0.48532
0.48532
0.48532
0.48532
0.49511
0.53033
0.56458
0.58023
0.54012
0.4501
0.36497
0.35519
0.40998
0.46477
0.49511
0.50489
0.50489
0.50489
0.50978
0.50978
0.50978
0.51468
0.51468
0.51957
0.51957
0.52544
0.53033
0.53523
0.54012
0.5499
0.55479
0.55969
0.57045
0.57045
0.57534
0.56458
0.55969
0.55479
0.54012
0.53033
0.51468
0.50489
0.49022
0.48532
0.48532
0.48532
0.48532
0.48532
0.48043
0.48532
0.48532
0.48532
0.48043
0.48043
0.48532
0.48532
0.48532
0.48532
0.48532
0.48532
0.48043
0.48043
0.48043
0.48043
0.48043
0.48532
0.48532
0.48532
0.48532
0.48532
0.49022
0.49022
0.49022
0.49511
0.5
0.5
0.50978
0.50978
0.50489
0.49511
0.49511
0.49022
0.48532
0.48532
0.48532
0.48532
0.48532
0.48532
0.49022
0.49511
0.52544
0.55479
0.58023
0.55969
0.48043
0.3953
0.36008
0.38943
0.44521
0.48532
0.5
0.50489
0.50978
0.50978
0.50978
0.50978
0.50978
0.51468
0.51957
0.52544
0.52544
0.52544
0.53523
0.54012
0.54501
0.5499
0.55969
0.57045
0.57534
0.57534
0.57045
0.56458
0.55479
0.54012
0.53033
0.50978
0.5
0.49022
0.48532
0.48043
0.47456
0.47456
0.47456
0.47456
0.47456
0.48043
0.47456
0.47456
0.47456
0.47456
0.47456
0.47456
0.48043
0.48043
0.48043
0.47456
0.47456
0.46967
0.46967
0.46967
0.46967
0.47456
0.46967
0.47456
0.47456
0.46967
0.46967
0.47456
0.48043
0.48532
0.48532
0.49022
0.49022
0.48043
0.46967
0.46967
0.46967
0.46967
0.46967
0.46967
0.46477
0.46477
0.46477
0.46477
0.47456
0.50489
0.54012
0.55479
0.51468
0.41977
0.32485
0.31018
0.36986
0.42955
0.45988
0.46967
0.47456
0.48043
0.48043
0.48532
0.48532
0.48532
0.48532
0.49022
0.49022
0.49511
0.5
0.50489
0.51468
0.52544
0.53033
0.54012
0.54501
0.5499
0.5499
0.55479
0.5499
0.53523
0.51468
0.5
0.48532
0.46477
0.45499
0.44521
0.44521
0.44031
0.44031
0.44031
0.44031
0.44031
0.44031
0.44031
0.44031
0.44521
0.44521
0.44521
0.44521
0.44031
0.44031
0.44031
0.44031
0.44521
0.44521
0.44521
0.44521
0.44521
0.44521
0.44521
0.44521
0.44521
0.44521
0.44521
0.4501
0.45988
0.46477
0.46477
0.46477
0.46477
0.45988
0.45499
0.45499
0.45499
0.4501
0.4501
0.44521
0.4501
0.4501
0.4501
0.4501
0.46967
0.50978
0.54501
0.5499
0.46477
0.35519
0.28474
0.31996
0.3953
0.44521
0.46477
0.47456
0.47456
0.47456
0.48043
0.48043
0.48532
0.48532
0.48532
0.49022
0.49511
0.50489
0.50978
0.51468
0.52544
0.53523
0.54012
0.5499
0.55969
0.56458
0.56458
0.55969
0.5499
0.53523
0.51957
0.50489
0.48532
0.46967
0.46477
0.45988
0.45988
0.45988
0.45499
0.45499
0.45988
0.45988
0.46477
0.46477
0.45988
0.45988
0.46477
0.46477
0.46477
0.46477
0.46477
0.46967
0.46967
0.46967
0.46477
0.46477
0.46477
0.46477
0.46967
0.46967
0.46967
0.46967
0.46967
0.46967
0.47456
0.48043
0.48532
0.49022
0.49022
0.48043
0.47456
0.46967
0.46967
0.46967
0.46967
0.47456
0.47456
0.46967
0.47456
0.47456
0.49022
0.51957
0.55479
0.57045
0.51468
0.41977
0.35029
0.33953
0.4002
0.45499
0.48043
0.49022
0.49022
0.49511
0.49511
0.49511
0.50489
0.50489
0.50978
0.50978
0.51468
0.51957
0.52544
0.53523
0.54012
0.54501
0.5499
0.55969
0.56458
0.57045
0.57045
0.56458
0.55969
0.5499
0.53523
0.51957
0.50978
0.49511
0.49022
0.48532
0.48043
0.47456
0.47456
0.47456
0.48043
0.48043
0.48043
0.48043
0.48532
0.48532
0.48532
0.48532
0.48532
0.48532
0.48532
0.49022
0.49022
0.49022
0.49022
0.48532
0.48532
0.48532
0.48532
0.48532
0.48532
0.48532
0.48532
0.48532
0.48532
0.49022
0.49511
0.50489
0.50489
0.50489
0.49511
0.49511
0.49022
0.49022
0.49022
0.49022
0.49022
0.48532
0.48532
0.48532
0.49022
0.51957
0.55479
0.58023
0.56458
0.48532
0.3953
0.36008
0.38943
0.4501
0.49022
0.50489
0.50978
0.50978
0.50978
0.51468
0.51468
0.51957
0.51957
0.51957
0.52544
0.52544
0.53033
0.53523
0.54012
0.5499
0.55479
0.56458
0.57045
0.57534
0.58023
0.58023
0.57534
0.56458
0.55479
0.54012
0.52544
0.51468
0.50489
0.49511
0.49511
0.49022
0.49022
0.49022
0.49022
0.49022
0.49022
0.49022
0.49511
0.49511
0.49511
0.49511
0.49511
0.49511
0.49511
0.5
0.5
0.5
0.5
0.49511
0.5
0.49511
0.49511
0.5
0.50489
0.50489
0.50489
0.50489
0.50489
0.50978
0.50978
0.51468
0.52544
0.52544
0.51957
0.51468
0.50978
0.50978
0.50978
0.50489
0.50489
0.50489
0.50489
0.50489
0.50489
0.51957
0.54501
0.58513
0.5998
0.55969
0.45499
0.35519
0.33464
0.41487
0.48043
0.51468
0.52544
0.52544
0.53033
0.53523
0.53523
0.54012
0.54012
0.54012
0.54501
0.5499
0.55479
0.55969
0.57045
0.57534
0.58513
0.59491
0.6047
0.61546
0.61546
0.62035
0.61546
0.61057
0.5998
0.58023
0.55969
0.54501
0.53033
0.51957
0.50978
0.50978
0.50489
0.50489
0.50489
0.50489
0.50489
0.50489
0.50489
0.50489
0.50489
0.50489
0.50489
0.50978
0.50978
0.50978
0.50978
0.50978
0.50489
0.50489
0.50489
0.50978
0.50978
0.50978
0.50978
0.50978
0.50978
0.50978
0.50978
0.50978
0.51468
0.51468
0.51957
0.52544
0.52544
0.52544
0.51468
0.50978
0.50978
0.50978
0.50978
0.50489
0.50489
0.50489
0.50489
0.50489
0.51957
0.5499
0.59002
0.61057
0.56458
0.46967
0.37476
0.35519
0.41487
0.47456
0.51468
0.53033
0.53033
0.53523
0.53523
0.53523
0.54012
0.54012
0.54501
0.5499
0.5499
0.5499
0.55479
0.55969
0.57045
0.57534
0.58023
0.59002
0.59491
0.5998
0.6047
0.5998
0.59491
0.58513
0.57534
0.55479
0.54012
0.53033
0.51957
0.50978
0.50489
0.50489
0.5
0.5
0.50489
0.50489
0.50489
0.50489
0.50489
0.50489
0.50489
0.50489
0.50489
0.50489
0.50489
0.50489
0.50489
0.50489
0.50489
0.50489
0.50489
0.50489
0.50489
0.50489
0.50978
0.50978
0.51468
0.50978
0.51468
0.51468
0.51957
0.52544
0.53033
0.53033
0.53033
0.52544
0.51468
0.50978
0.50978
0.50978
0.50489
0.50489
0.50978
0.50978
0.50978
0.51468
0.53523
0.57534
0.5998
0.6047
0.51468
0.41977
0.37965
0.40509
0.45988
0.5
0.51468
0.52544
0.52544
0.52544
0.52544
0.53033
0.53033
0.53033
0.53523
0.54012
0.54012
0.54012
0.5499
0.55479
0.55969
0.57045
0.57534
0.58023
0.58513
0.59002
0.59491
0.58513
0.58023
0.57045
0.55479
0.54501
0.53033
0.51957
0.50978
0.50489
0.50489
0.5
0.49511
0.5
0.49511
0.5
0.5
0.50489
0.50489
0.50489
0.50489
0.50489
0.50489
0.5
0.5
0.5
0.5
0.50489
0.50489
0.50489
0.50489
0.50489
0.50489
0.50489
0.50489
0.50489
0.50489
0.50489
0.50978
0.50978
0.51468
0.51957
0.52544
0.52544
0.51957
0.51468
0.51468
0.50978
0.50978
0.50978
0.50489
0.50489
0.50489
0.50489
0.50489
0.51957
0.5499
0.58023
0.59491
0.5499
0.4501
0.36986
0.35519
0.41487
0.46477
0.5
0.50978
0.51468
0.51468
0.51468
0.51957
0.52544
0.53033
0.53033
0.53523
0.53523
0.53523
0.54012
0.5499
0.55479
0.56458
0.57045
0.58023
0.58513
0.59002
0.59491
0.59002
0.58513
0.57534
0.55969
0.54501
0.53033
0.51468
0.50489
0.5
0.49511
0.49022
0.49022
0.49022
0.49022
0.49022
0.49022
0.49022
0.49022
0.49022
0.49022
0.49022
0.49022
0.49022
0.49022
0.49022
0.49022
0.49511
0.49511
0.49511
0.49511
0.49511
0.49511
0.49511
0.49511
0.49511
0.49511
0.49511
0.49511
0.49511
0.5
0.50489
0.50978
0.51468
0.51468
0.50978
0.50489
0.49511
0.49511
0.5
0.5
0.49511
0.49511
0.49511
0.49511
0.49511
0.50489
0.53033
0.57045
0.59491
0.55969
0.45988
0.35029
0.32485
0.38943
0.45988
0.5
0.51468
0.51957
0.52544
0.52544
0.52544
0.52544
0.53033
0.53033
0.53523
0.54012
0.54501
0.5499
0.55479
0.55969
0.57045
0.58023
0.59002
0.5998
0.6047
0.6047
0.6047
0.59491
0.58513
0.57045
0.5499
0.53033
0.51468
0.50489
0.49511
0.49022
0.48532
0.48532
0.48532
0.48532
0.48532
0.49022
0.49022
0.49022
0.49022
0.49022
0.49022
0.49022
0.48532
0.48532
0.49022
0.49022
0.48532
0.48532
0.48532
0.49022
0.49022
0.49022
0.49022
0.49022
0.49022
0.49022
0.49511
0.49022
0.49022
0.49511
0.5
0.50489
0.50489
0.50978
0.50978
0.5
0.49511
0.49022
0.49022
0.49022
0.49022
0.48532
0.48532
0.48532
0.48532
0.49511
0.51957
0.5499
0.58023
0.58513
0.50489
0.40998
0.35519
0.37965
0.44031
0.49022
0.50489
0.50978
0.51468
0.51468
0.51468
0.51468
0.51468
0.51468
0.52544
0.52544
0.53033
0.53033
0.53523
0.54012
0.5499
0.55479
0.56458
0.57045
0.57534
0.57534
0.58023
0.57534
0.57045
0.55479
0.54012
0.53033
0.50978
0.50489
0.49511
0.49022
0.48532
0.48532
0.48532
0.48532
0.48043
0.48043
0.48532
0.48532
0.48532
0.49022
0.48532
0.48532
0.48532
0.48532
0.48532
0.48532
0.48532
0.49022
0.49022
0.49022
0.49022
0.48532
0.48532
0.48532
0.48532
0.48532
0.49022
0.49022
0.49022
0.49511
0.49511
0.5
0.50489
0.50489
0.50489
0.5
0.49511
0.49511
0.49511
0.49022
0.49022
0.48532
0.48532
0.48532
0.48532
0.49022
0.50978
0.54501
0.57534
0.58023
0.5
0.40509
0.35519
0.37965
0.42955
0.46967
0.49022
0.49511
0.5
0.5
0.50489
0.50489
0.50978
0.51468
0.51468
0.52544
0.53033
0.53033
0.53523
0.54012
0.54501
0.55479
0.55969
0.57045
0.57534
0.58023
0.58023
0.58023
0.57534
0.55969
0.5499
0.54012
0.53033
0.51957
0.50978
0.50489
0.5
0.49511
0.49511
0.49511
0.49511
0.49511
0.49511
0.49511
0.49511
0.49511
0.5
0.50489
0.50489
0.50489
0.5
0.5
0.49511
0.49511
0.49511
0.49511
0.49511
0.49511
0.49511
0.49511
0.49022
0.49022
0.49022
0.49022
0.49022
0.49022
0.49511
0.5
0.50489
0.50978
0.50978
0.50489
0.49511
0.49511
0.49022
0.49022
0.49022
0.49022
0.49022
0.49022
0.49022
0.49022
0.50489
0.53523
0.57045
0.58513
0.54012
0.44031
0.34442
0.32975
0.4002
0.45988
0.49511
0.50489
0.50978
0.50978
0.51468
0.51957
0.51957
0.52544
0.52544
0.52544
0.52544
0.53033
0.53523
0.54012
0.5499
0.55479
0.55969
0.57045
0.58023
0.58513
0.58513
0.58513
0.58023
0.56458
0.5499
0.53523
0.51468
0.50489
0.49511
0.49022
0.48043
0.47456
0.47456
0.47456
0.47456
0.47456
0.48043
0.48532
0.48532
0.48532
0.48532
0.48532
0.48532
0.48532
0.48532
0.48532
0.49022
0.49022
0.49022
0.49022
0.48532
0.48532
0.48532
0.48532
0.48532
0.48532
0.48532
0.48532
0.48532
0.48532
0.49022
0.49022
0.49511
0.50489
0.50489
0.50489
0.5
0.49511
0.49022
0.48532
0.48532
0.48532
0.48043
0.48532
0.48532
0.48532
0.48532
0.49511
0.52544
0.55969
0.58023
0.54012
0.4501
0.34442
0.31996
0.38454
0.4501
0.48532
0.49511
0.50489
0.50489
0.50489
0.50978
0.50978
0.51468
0.51468
0.51468
0.51957
0.52544
0.53523
0.54012
0.54501
0.5499
0.55969
0.57045
0.58023
0.58023
0.58513
0.58513
0.58023
0.57045
0.55479
0.53523
0.51468
0.50489
0.49022
0.48532
0.47456
0.47456
0.47456
0.47456
0.47456
0.47456
0.47456
0.47456
0.47456
0.47456
0.47456
0.48043
0.48043
0.48043
0.48043
0.47456
0.47456
0.47456
0.48043
0.48043
0.48532
0.48532
0.48043
0.48043
0.48532
0.48532
0.48043
0.48043
0.48532
0.48532
0.49022
0.49511
0.49511
0.50489
0.50978
0.50489
0.5
0.49022
0.49022
0.48532
0.48532
0.48532
0.48043
0.48043
0.48043
0.48043
0.48532
0.50978
0.54012
0.57045
0.58023
0.50978
0.40998
0.35519
0.36986
0.42466
0.46967
0.49022
0.49511
0.5
0.50489
0.50978
0.50978
0.50978
0.51468
0.51957
0.51957
0.51957
0.52544
0.52544
0.53033
0.54012
0.5499
0.55479
0.55969
0.56458
0.57045
0.57045
0.57045
0.55969
0.55479
0.53523
0.52544
0.50978
0.5
0.49022
0.48532
0.48043
0.48043
0.48043
0.48043
0.48043
0.48043
0.47456
0.47456
0.48043
0.48043
0.48532
0.48532
0.49022
0.49022
0.48532
0.48532
0.49022
0.48532
0.48532
0.48532
0.49022
0.48532
0.48532
0.49022
0.49022
0.49022
0.49022
0.49022
0.49022
0.49511
0.49511
0.5
0.50489
0.50978
0.50978
0.50489
0.49511
0.49511
0.49511
0.49511
0.49022
0.49022
0.48532
0.48532
0.48532
0.48532
0.49511
0.52544
0.55969
0.58023
0.5499
0.46477
0.37476
0.35519
0.3953
0.4501
0.48532
0.49511
0.50489
0.50489
0.50489
0.50489
0.50978
0.51468
0.51468
0.51468
0.51468
0.51957
0.52544
0.53033
0.54012
0.5499
0.55479
0.55969
0.57045
0.57534
0.57534
0.57534
0.57045
0.55969
0.5499
0.54012
0.52544
0.50978
0.49511
0.49022
0.48532
0.47456
0.47456
0.46967
0.46967
0.47456
0.47456
0.48043
0.48043
0.48532
0.48532
0.48532
0.48532
0.48532
0.48043
0.48532
0.48532
0.48532
0.48043
0.48043
0.48043
0.48043
0.48043
0.48043
0.48043
0.48043
0.48532
0.48532
0.48532
0.48532
0.48532
0.49022
0.49022
0.49511
0.5
0.5
0.49511
0.49022
0.49022
0.48532
0.48532
0.48532
0.48532
0.48532
0.48532
0.48043
0.48043
0.48532
0.50978
0.55479
0.58023
0.55969
0.47456
0.36008
0.31018
0.36008
0.44031
0.48532
0.49511
0.50489
0.50489
0.50978
0.50978
0.51468
0.51468
0.51957
0.51957
0.52544
0.52544
0.53033
0.53523
0.54012
0.5499
0.55479
0.57045
0.58023
0.59002
0.59491
0.59002
0.58513
0.57534
0.55969
0.54012
0.52544
0.50489
0.49511
0.48532
0.47456
0.47456
0.47456
0.47456
0.47456
0.47456
0.47456
0.47456
0.47456
0.47456
0.48043
0.48532
0.48043
0.48043
0.48043
0.48532
0.48532
0.48532
0.48532
0.48532
0.48532
0.48043
0.48532
0.48532
0.49022
0.49022
0.48532
0.49022
0.48532
0.48532
0.49022
0.49022
0.49022
0.49511
0.50489
0.50489
0.5
0.49511
0.49022
0.48532
0.48532
0.48532
0.48532
0.48532
0.48532
0.48532
0.48532
0.49511
0.52544
0.55969
0.58023
0.5499
0.45988
0.36986
0.33953
0.38943
0.4501
0.48532
0.49511
0.5
0.50489
0.50489
0.50978
0.50978
0.50978
0.51468
0.51468
0.51957
0.51957
0.52544
0.53033
0.53523
0.54012
0.5499
0.55969
0.57045
0.57534
0.57534
0.57534
0.57534
0.55969
0.5499
0.53033
0.51468
0.5
0.49022
0.48532
0.48532
0.48043
0.48043
0.48043
0.48043
0.48043
0.48532
0.48043
0.48043
0.48043
0.48532
0.48532
0.48532
0.48532
0.48532
0.48532
0.48532
0.48532
0.48532
0.48532
0.48532
0.48532
0.48532
0.49022
0.48532
0.49022
0.48532
0.48532
0.48532
0.48532
0.49022
0.49511
0.5
0.50489
0.50489
0.50489
0.49511
0.49022
0.48532
0.48532
0.48043
0.48043
0.48532
0.48532
0.48532
0.48532
0.49022
0.50978
0.54501
0.57045
0.57534
0.5
0.40998
0.35519
0.37476
0.42466
0.46967
0.49022
0.49511
0.49511
0.5
0.50489
0.50489
0.50489
0.50489
0.50978
0.51468
0.51468
0.52544
0.53033
0.53523
0.54012
0.5499
0.55969
0.56458
0.57045
0.57045
0.57534
0.57045
0.55969
0.55479
0.54012
0.53033
0.50978
0.5
0.49022
0.48532
0.48532
0.48043
0.47456
0.47456
0.47456
0.47456
0.48043
0.48532
0.48532
0.48532
0.48532
0.48532
0.48532
0.48532
0.48532
0.48532
0.48532
0.48532
0.48532
0.48532
0.48532
0.49022
0.48532
0.48532
0.48532
0.48532
0.48532
0.48532
0.48532
0.49022
0.49511
0.49511
0.50489
0.50489
0.50489
0.49511
0.49022
0.49022
0.49022
0.49022
0.48532
0.48043
0.48043
0.47456
0.47456
0.48532
0.5
0.53523
0.57045
0.57534
0.51957
0.41487
0.33953
0.33464
0.40998
0.46477
0.49022
0.49511
0.5
0.50489
0.50489
0.50489
0.50978
0.51468
0.51468
0.52544
0.52544
0.53033
0.53033
0.53523
0.53523
0.5499
0.56458
0.57534
0.58023
0.58513
0.58023
0.57534
0.57045
0.55479
0.54012
0.52544
0.50978
0.49511
0.48043
0.46967
0.46477
0.46477
0.46477
0.46967
0.46967
0.46967
0.47456
0.46967
0.46967
0.47456
0.47456
0.47456
0.47456
0.48043
0.48532
0.48532
0.48532
0.48532
0.49022
0.49022
0.49022
0.48532
0.48532
0.48532
0.49022
0.49022
0.49022
0.48532
0.48532
0.48532
0.49022
0.49022
0.49511
0.49511
0.5
0.49511
0.49022
0.48532
0.48532
0.48532
0.48532
0.48043
0.48043
0.48043
0.48043
0.48043
0.49022
0.51957
0.55969
0.58023
0.54501
0.45499
0.34442
0.31507
0.38454
0.45499
0.49022
0.50489
0.50489
0.50978
0.51468
0.51468
0.51468
0.51957
0.52544
0.52544
0.52544
0.53033
0.54012
0.54501
0.5499
0.55969
0.57045
0.58023
0.58513
0.59491
0.59491
0.59491
0.58513
0.57534
0.55969
0.54012
0.52544
0.50489
0.49511
0.48532
0.48532
0.48043
0.48043
0.47456
0.47456
0.48043
0.48532
0.48532
0.48532
0.48532
0.49022
0.49022
0.49022
0.48532
0.48532
0.48532
0.48532
0.48532
0.49022
0.49022
0.49022
0.49022
0.49022
0.48532
0.48532
0.48532
0.48532
0.48532
0.48532
0.49022
0.49511
0.49511
0.50489
0.50978
0.50978
0.50489
0.5
0.49511
0.49511
0.49511
0.49022
0.49022
0.49022
0.49022
0.48532
0.48532
0.49022
0.51468
0.5499
0.57534
0.58023
0.48043
0.38943
0.35029
0.37965
0.43542
0.48043
0.49511
0.49511
0.5
0.50489
0.50978
0.50978
0.50978
0.51468
0.51468
0.51957
0.52544
0.53033
0.53523
0.53523
0.54501
0.55479
0.55969
0.56458
0.57045
0.57045
0.57534
0.57045
0.56458
0.55479
0.54012
0.52544
0.50978
0.49511
0.49022
0.48532
0.48043
0.48043
0.48043
0.48043
0.48043
0.47456
0.48043
0.48043
0.48043
0.48532
0.48532
0.48532
0.48532
0.48532
0.48532
0.48532
0.48532
0.48532
0.48043
0.48043
0.48532
0.48532
0.49022
0.49022
0.48532
0.48532
0.48532
0.48532
0.48532
0.49022
0.49511
0.5
0.50489
0.50489
0.50489
0.49511
0.49511
0.49022
0.49022
0.49022
0.49022
0.49022
0.49022
0.49022
0.48532
0.49511
0.52544
0.55969
0.58023
0.55479
0.47456
0.38454
0.35519
0.38943
0.44521
0.48532
0.5
0.50489
0.50978
0.50978
0.50978
0.50978
0.50978
0.51468
0.51957
0.52544
0.53033
0.53033
0.53523
0.54012
0.54501
0.55479
0.55969
0.57045
0.57534
0.57534
0.57534
0.57534
0.57045
0.55479
0.54012
0.52544
0.51468
0.50489
0.49511
0.49022
0.49022
0.49022
0.49022
0.49022
0.49022
0.49022
0.49022
0.49022
0.49022
0.49022
0.49022
0.49022
0.49022
0.49022
0.49022
0.49022
0.49022
0.49022
0.49022
0.49022
0.49022
0.49022
0.49022
0.49022
0.48532
0.48532
0.48532
0.48532
0.49022
0.49511
0.5
0.50489
0.50978
0.50489
0.49511
0.49022
0.49022
0.49022
0.49022
0.49022
0.48532
0.48043
0.48043
0.48043
0.47456
0.49022
0.52544
0.56458
0.58023
0.53033
0.42466
0.33464
0.31996
0.4002
0.45499
0.49022
0.5
0.50489
0.50978
0.50978
0.51468
0.51468
0.51957
0.52544
0.52544
0.52544
0.53033
0.53523
0.54501
0.5499
0.55969
0.57045
0.58023
0.58513
0.59491
0.59491
0.59491
0.58513
0.57534
0.55969
0.54012
0.52544
0.50978
0.49511
0.49022
0.49022
0.48532
0.48532
0.48532
0.48532
0.48532
0.48532
0.48532
0.49022
0.49022
0.49022
0.49022
0.49022
0.48532
0.48532
0.48532
0.48532
0.48532
0.48532
0.48532
0.49022
0.49022
0.49022
0.49022
0.48532
0.48532
0.48532
0.48532
0.49022
0.49022
0.49511
0.49511
0.50489
0.50978
0.50489
0.5
0.49022
0.49022
0.48532
0.48532
0.48532
0.48532
0.48532
0.48532
0.48532
0.48532
0.50489
0.54012
0.57534
0.58023
0.51957
0.41487
0.33464
0.32975
0.41487
0.46967
0.49511
0.50489
0.50489
0.50489
0.50978
0.50978
0.51468
0.51468
0.52544
0.52544
0.53033
0.53523
0.53523
0.54012
0.54012
0.55479
0.55969
0.57045
0.58023
0.58513
0.58513
0.58023
0.57534
0.55969
0.54501
0.53033
0.51468
0.5
0.49022
0.48532
0.48043
0.47456
0.47456
0.47456
0.47456
0.48043
0.48043
0.48043
0.48043
0.48532
0.48532
0.48532
0.48532
0.48532
0.48532
0.48532
0.48532
0.48532
0.48532
0.48532
0.48532
0.48532
0.48532
0.48532
0.48532
0.48532
0.48532
0.48532
0.49022
0.49511
0.5
0.50489
0.50978
0.50978
0.50489
0.49511
0.49022
0.49022
0.49022
0.49022
0.49022
0.49022
0.48532
0.48532
0.49022
0.50489
0.53033
0.56458
0.58023
0.53523
0.44031
0.36008
0.35029
0.40509
0.45988
0.49022
0.5
0.50489
0.50489
0.50489
0.50489
0.50978
0.50978
0.51468
0.51957
0.52544
0.52544
0.53033
0.53523
0.54012
0.53523
0.54012
0.5499
0.55969
0.56458
0.57045
0.57045
0.55969
0.55479
0.54501
0.53033
0.51468
0.50489
0.49511
0.49022
0.49022
0.48532
0.48532
0.48043
0.48043
0.48532
0.48532
0.48532
0.48532
0.48532
0.49022
0.48532
0.48532
0.48532
0.48532
0.48532
0.49022
0.49022
0.49022
0.49022
0.48532
0.48532
0.48532
0.48532
0.48532
0.48532
0.48532
0.49022
0.49022
0.49511
0.5
0.50489
0.50978
0.50978
0.50489
0.49511
0.49511
0.49022
0.48532
0.48532
0.48043
0.48043
0.48532
0.48532
0.48532
0.50489
0.54012
0.57045
0.57534
0.50489
0.40509
0.34442
0.36497
0.41487
0.46477
0.48532
0.49022
0.49511
0.50489
0.50489
0.50489
0.50489
0.50978
0.51468
0.51468
0.51957
0.52544
0.53033
0.53523
0.54012
0.5499
0.55969
0.57045
0.57534
0.58023
0.58023
0.57534
0.57045
0.55969
0.54501
0.52544
0.50978
0.49511
0.48532
0.48532
0.48043
0.47456
0.47456
0.48043
0.48532
0.48532
0.48043
0.48043
0.48532
0.48532
0.48532
0.48532
0.48532
0.48532
0.48532
0.48532
0.48043
0.48043
0.48043
0.48532
0.48532
0.48532
0.48532
0.48532
0.48532
0.48532
0.48532
0.48532
0.49022
0.49511
0.5
0.50489
0.50489
0.5
0.49511
0.49022
0.49022
0.49022
0.49022
0.48532
0.48532
0.48532
0.48532
0.48532
0.48532
0.50489
0.54012
0.57534
0.58023
0.5
0.38943
0.31507
0.34442
0.42466
0.48043
0.5
0.50489
0.50978
0.50978
0.51468
0.51468
0.51957
0.52544
0.52544
0.53033
0.53033
0.53523
0.54012
0.5499
0.55479
0.56458
0.57534
0.58023
0.59002
0.59491
0.59491
0.59002
0.58023
0.56458
0.54501
0.52544
0.50978
0.5
0.49022
0.48043
0.47456
0.47456
0.47456
0.47456
0.47456
0.47456
0.48043
0.48532
0.48532
0.48532
0.48532
0.48532
0.48532
0.48043
0.48043
0.48043
0.48532
0.48532
0.48532
0.48043
0.48532
0.48532
0.48532
0.48532
0.48532
0.48532
0.48532
0.48532
0.48532
0.49022
0.49511
0.5
0.5
0.49511
0.49022
0.48532
0.48043
0.47456
0.47456
0.47456
0.48043
0.48532
0.48043
0.48532
0.49022
0.50978
0.54501
0.57534
0.58023
0.50489
0.40998
0.35029
0.36986
0.42955
0.47456
0.49511
0.5
0.50489
0.50489
0.50978
0.50978
0.51468
0.51468
0.51468
0.51957
0.52544
0.53033
0.53523
0.53523
0.54012
0.5499
0.55969
0.56458
0.57045
0.57534
0.57534
0.57045
0.55969
0.55479
0.53523
0.52544
0.50489
0.49511
0.49022
0.48532
0.48043
0.48043
0.48043
0.48532
0.48532
0.48532
0.48532
0.48532
0.48532
0.48532
0.48532
0.49022
0.49022
0.49022
0.49022
0.49022
0.49022
0.49022
0.49022
0.49022
0.49022
0.48532
0.48532
0.48532
0.48532
0.48532
0.49022
0.49022
0.49511
0.5
0.50489
0.50978
0.50978
0.50489
0.49511
0.49022
0.49022
0.49022
0.49022
0.48532
0.48532
0.48532
0.48532
0.48532
0.5
0.53523
0.57045
0.58513
0.54012
0.44521
0.36986
0.36008
0.40509
0.45988
0.48532
0.5
0.50489
0.50978
0.50978
0.50978
0.50978
0.51468
0.51468
0.51957
0.52544
0.53033
0.53523
0.53523
0.54012
0.5499
0.55479
0.55969
0.57045
0.57534
0.57534
0.57534
0.57045
0.55969
0.54501
0.53033
0.51468
0.50489
0.49511
0.49022
0.49022
0.48532
0.48532
0.48532
0.49022
0.49022
0.49022
0.49022
0.49022
0.49022
0.48532
0.48532
0.48532
0.48532
0.48532
0.48532
0.49022
0.49022
0.49022
0.49022
0.49022
0.49022
0.49022
0.49022
0.49022
0.48532
0.48532
0.49022
0.49022
0.49511
0.5
0.50489
0.50489
0.50489
0.49511
0.49022
0.49022
0.48532
0.48532
0.48532
0.49022
0.48532
0.48532
0.48532
0.5
0.53033
0.56458
0.58023
0.54501
0.4501
0.36008
0.34442
0.4002
0.45499
0.49022
0.50489
0.50978
0.50978
0.51468
0.51468
0.51468
0.51957
0.52544
0.53033
0.53033
0.53523
0.53523
0.54012
0.5499
0.55969
0.57045
0.58023
0.58513
0.59002
0.59491
0.59002
0.58513
0.57534
0.55969
0.54012
0.52544
0.50978
0.5
0.49511
0.49022
0.49022
0.48532
0.48532
0.48532
0.48532
0.48532
0.48532
0.49022
0.49022
0.49022
0.49022
0.49022
0.49511
0.49022
0.49022
0.49022
0.49022
0.49022
0.49022
0.49022
0.49022
0.49022
0.49511
0.49022
0.49022
0.49022
0.49022
0.49511
0.5
0.50489
0.50978
0.50978
0.50978
0.50489
0.49511
0.49511
0.49511
0.49022
0.49022
0.48532
0.48532
0.49022
0.49022
0.49022
0.50489
0.53523
0.57045
0.58023
0.53033
0.42466
0.32485
0.31018
0.4002
0.46477
0.49511
0.50489
0.50489
0.50978
0.50978
0.50978
0.51468
0.51468
0.52544
0.52544
0.53033
0.53523
0.53523
0.54501
0.55479
0.56458
0.57045
0.58023
0.58513
0.58513
0.59002
0.58513
0.58023
0.57045
0.5499
0.53523
0.51468
0.5
0.49022
0.48043
0.47456
0.47456
0.47456
0.47456
0.47456
0.47456
0.48043
0.48532
0.48532
0.48532
0.48532
0.48532
0.48532
0.48532
0.48532
0.48532
0.48532
0.48532
0.48532
0.48532
0.48532
0.48532
0.48532
0.48532
0.49022
0.49022
0.49022
0.49022
0.49511
0.49511
0.5
0.50489
0.50489
0.50489
0.49511
0.49511
0.49022
0.49022
0.48532
0.48532
0.48043
0.48043
0.48043
0.48043
0.49022
0.51957
0.55479
0.58023
0.55969
0.47456
0.38454
0.35519
0.38943
0.44521
0.48532
0.49511
0.50489
0.50489
0.50978
0.50978
0.50978
0.51468
0.51468
0.52544
0.52544
0.52544
0.53033
0.53033
0.53523
0.54501
0.55479
0.55969
0.57045
0.57534
0.57534
0.57045
0.57045
0.55969
0.5499
0.53523
0.52544
0.50978
0.5
0.49511
0.49022
0.48532
0.48532
0.48532
0.48532
0.49022
0.48532
0.48532
0.48532
0.48532
0.49022
0.49022
0.49022
0.49022
0.49022
0.49022
0.49022
0.49022
0.49022
0.49022
0.49022
0.49022
0.49022
0.49022
0.49511
0.49022
0.49022
0.49022
0.49022
0.49511
0.50489
0.50978
0.50978
0.50978
0.50489
0.5
0.49511
0.49511
0.49511
0.49022
0.49022
0.49022
0.49022
0.49511
0.49511
0.50978
0.54012
0.57534
0.58513
0.53033
0.43542
0.36497
0.35519
0.41487
0.46477
0.49511
0.50489
0.50489
0.50978
0.50978
0.50978
0.50978
0.51468
0.51468
0.51957
0.52544
0.53033
0.53523
0.54012
0.54501
0.5499
0.55479
0.56458
0.57045
0.57534
0.58023
0.57534
0.57045
0.55969
0.54501
0.53033
0.51468
0.50489
0.49511
0.49022
0.48532
0.48043
0.47456
0.47456
0.48043
0.48043
0.48043
0.48043
0.48043
0.48043
0.48043
0.48043
0.48043
0.48532
0.48532
0.48532
0.48532
0.48532
0.49022
0.49022
0.49022
0.49022
0.49022
0.49022
0.49022
0.49022
0.49022
0.49511
0.5
0.50489
0.50978
0.50978
0.51468
0.50978
0.50489
0.49511
0.49511
0.49022
0.49022
0.49022
0.49022
0.49022
0.49022
0.49022
0.49511
0.51468
0.5499
0.58023
0.58513
0.50978
0.3953
0.32975
0.35519
0.42466
0.48043
0.50489
0.50978
0.50978
0.50978
0.51468
0.51957
0.52544
0.53033
0.53033
0.53033
0.53523
0.53523
0.54012
0.5499
0.55479
0.56458
0.57534
0.58513
0.59491
0.59491
0.5998
0.59002
0.58023
0.57045
0.55479
0.53523
0.51957
0.50489
0.49511
0.49022
0.49022
0.48532
0.48532
0.48532
0.48532
0.48532
0.48532
0.48532
0.48532
0.48532
0.48532
0.49022
0.49022
0.49511
0.49511
0.49022
0.49022
0.49022
0.49022
0.49511
0.49022
0.49022
0.49022
0.49022
0.48532
0.48532
0.49022
0.49022
0.49022
0.49022
0.49511
0.50489
0.50489
0.50978
0.50489
0.49511
0.49511
0.49022
0.49022
0.48532
0.48532
0.48532
0.48532
0.48043
0.48043
0.48532
0.51468
0.55479
0.58023
0.56458
0.48043
0.36986
0.32975
0.36986
0.44031
0.48532
0.50489
0.50978
0.50978
0.51468
0.51468
0.51468
0.51957
0.51957
0.52544
0.52544
0.52544
0.53033
0.53523
0.54501
0.5499
0.55479
0.57045
0.57534
0.58023
0.58513
0.58513
0.58023
0.57045
0.55479
0.54012
0.52544
0.50978
0.49511
0.49022
0.48532
0.48532
0.48043
0.48043
0.48532
0.48043
0.48043
0.48043
0.48043
0.48532
0.48532
0.48532
0.48532
0.48532
0.49022
0.49022
0.49022
0.49022
0.49022
0.49022
0.49022
0.49022
0.48532
0.49022
0.49022
0.49022
0.49022
0.49022
0.49022
0.49022
0.49511
0.50489
0.50489
0.50978
0.50489
0.5
0.49511
0.49511
0.49022
0.49022
0.49022
0.49022
0.49022
0.49022
0.49022
0.49511
0.51468
0.5499
0.58023
0.58513
0.50489
0.40998
0.35519
0.37965
0.43542
0.48043
0.5
0.50978
0.50978
0.51468
0.51468
0.51468
0.51468
0.51957
0.51957
0.51957
0.52544
0.53033
0.53523
0.54012
0.54501
0.5499
0.55969
0.57045
0.57534
0.57534
0.57534
0.57534
0.57045
0.55479
0.54501
0.53033
0.50978
0.5
0.49022
0.49022
0.49022
0.48532
0.48532
0.48532
0.48532
0.48532
0.48532
0.48532
0.48532
0.49022
0.49022
0.49022
0.49022
0.49022
0.49511
0.49511
0.49511
0.49022
0.49022
0.49022
0.49511
0.49511
0.49511
0.49511
0.49511
0.49511
0.49511
0.49511
0.49511
0.5
0.50489
0.50978
0.50978
0.50978
0.50489
0.5
0.49511
0.49022
0.49022
0.49022
0.48532
0.48532
0.48043
0.48532
0.48532
0.50489
0.53523
0.57045
0.58023
0.53033
0.43542
0.36497
0.35519
0.41487
0.46967
0.5
0.50978
0.51468
0.51468
0.51468
0.51468
0.51468
0.51468
0.51957
0.52544
0.53033
0.53523
0.54012
0.54501
0.5499
0.55479
0.57045
0.57534
0.58023
0.58513
0.58513
0.58023
0.57534
0.55969
0.5499
0.53523
0.51957
0.50978
0.5
0.49511
0.49022
0.48532
0.48532
0.48532
0.48532
0.48532
0.48043
0.48043
0.48043
0.48532
0.48532
0.48532
0.48532
0.48532
0.48532
0.48532
0.48532
0.49022
0.48532
0.48532
0.48532
0.48532
0.48532
0.49022
0.49022
0.49022
0.48532
0.48532
0.48532
0.49022
0.49511
0.5
0.50489
0.50489
0.50489
0.49511
0.49022
0.48532
0.48532
0.48532
0.48532
0.48532
0.48532
0.48532
0.48532
0.48532
0.5
0.53523
0.57534
0.58513
0.53033
0.41487
0.32485
0.31996
0.40998
0.47456
0.5
0.50489
0.50978
0.50978
0.51468
0.51468
0.51468
0.51468
0.52544
0.53033
0.53523
0.54012
0.54501
0.5499
0.55479
0.56458
0.57534
0.58513
0.59491
0.59491
0.5998
0.5998
0.59002
0.57534
0.55479
0.54012
0.52544
0.50489
0.49511
0.49022
0.48532
0.48532
0.48043
0.47456
0.47456
0.47456
0.47456
0.47456
0.48532
0.48532
0.48532
0.48532
0.48532
0.48532
0.48532
0.48532
0.48532
0.48532
0.49022
0.49022
0.48532
0.48532
0.48532
0.48532
0.48532
0.48532
0.48532
0.48532
0.48532
0.49022
0.49511
0.5
0.5
0.50489
0.50489
0.49511
0.49511
0.49511
0.49022
0.49022
0.49022
0.48532
0.48532
0.48532
0.48532
0.48532
0.50489
0.54012
0.57534
0.58023
0.51957
0.41977
0.35029
0.34442
0.41487
0.46967
0.49511
0.50489
0.50489
0.50489
0.50978
0.50978
0.50978
0.50978
0.51468
0.51468
0.51957
0.52544
0.53033
0.53523
0.54012
0.5499
0.55969
0.56458
0.57045
0.57534
0.57534
0.57045
0.56458
0.55479
0.54012
0.52544
0.50978
0.5
0.49022
0.48532
0.48043
0.48043
0.48043
0.48043
0.48043
0.48043
0.48043
0.48532
0.48532
0.48532
0.49022
0.48532
0.48532
0.48532
0.48532
0.48043
0.48043
0.48532
0.48532
0.48532
0.48532
0.48532
0.48532
0.48532
0.48532
0.48532
0.48532
0.48532
0.48532
0.49022
0.49511
0.50489
0.50489
0.50489
0.5
0.49511
0.49511
0.49022
0.49022
0.49022
0.49022
0.49022
0.48532
0.48532
0.49022
0.5
0.53033
0.57045
0.58513
0.54501
0.4501
0.36986
0.35519
0.40509
0.45499
0.48532
0.49511
0.5
0.5
0.5
0.50489
0.50489
0.50978
0.51468
0.51468
0.52544
0.53033
0.53033
0.53523
0.54012
0.54501
0.55479
0.55969
0.57045
0.57534
0.57534
0.57534
0.57045
0.55969
0.5499
0.53523
0.52544
0.50978
0.49511
0.49022
0.49022
0.48532
0.48043
0.48043
0.48532
0.48532
0.48532
0.48532
0.48532
0.48532
0.48532
0.48532
0.48532
0.48532
0.48532
0.48532
0.49022
0.49022
0.48532
0.48532
0.48532
0.48532
0.48532
0.48532
0.48532
0.48532
0.49022
0.49022
0.49022
0.49022
0.49511
0.5
0.50489
0.50978
0.50489
0.50489
0.5
0.49511
0.49511
0.49022
0.49022
0.49022
0.49022
0.48532
0.48532
0.49022
0.50978
0.54501
0.57534
0.58023
0.5
0.3953
0.33464
0.36497
0.42955
0.47456
0.5
0.50489
0.50978
0.50978
0.51468
0.51468
0.50978
0.51468
0.51468
0.51468
0.52544
0.52544
0.53523
0.54012
0.5499
0.55479
0.57045
0.57534
0.58023
0.58023
0.58513
0.58023
0.57045
0.55479
0.54012
0.52544
0.50489
0.49022
0.48532
0.47456
0.47456
0.47456
0.47456
0.47456
0.47456
0.47456
0.48043
0.48043
0.48043
0.48043
0.48043
0.48532
0.48532
0.48532
0.48532
0.48532
0.48532
0.48532
0.48532
0.48532
0.48532
0.48532
0.48532
0.48532
0.48532
0.48532
0.48532
0.48532
0.48532
0.49022
0.49022
0.49511
0.5
0.50489
0.50489
0.5
0.49511
0.49022
0.49022
0.49022
0.49022
0.48532
0.48532
0.48532
0.48532
0.48532
0.50489
0.54012
0.57534
0.58513
0.51468
0.4002
0.31996
0.31507
0.41487
0.47456
0.50489
0.50978
0.50978
0.51468
0.51468
0.51468
0.51468
0.51957
0.52544
0.52544
0.53033
0.53523
0.54012
0.5499
0.55479
0.57045
0.58023
0.58513
0.59491
0.5998
0.59491
0.59002
0.58023
0.57045
0.5499
0.53033
0.51468
0.50489
0.49022
0.48532
0.48043
0.48043
0.48043
0.48532
0.48532
0.48532
0.48532
0.48532
0.48532
0.48532
0.48532
0.48532
0.48532
0.49022
0.49022
0.49022
0.49022
0.49022
0.49022
0.49022
0.49022
0.48532
0.48532
0.48532
0.48532
0.48532
0.48532
0.48532
0.48532
0.49022
0.49511
0.5
0.50489
0.50978
0.50489
0.49511
0.49022
0.49022
0.48532
0.48532
0.48532
0.48043
0.48043
0.48043
0.48043
0.49022
0.51957
0.55969
0.58023
0.55479
0.46477
0.37476
0.35519
0.38943
0.4501
0.48532
0.49511
0.50489
0.50489
0.50978
0.50978
0.50978
0.51468
0.51468
0.51468
0.51468
0.51957
0.52544
0.53033
0.53523
0.54012
0.5499
0.55479
0.57045
0.57045
0.57534
0.57534
0.57045
0.55969
0.5499
0.53523
0.51957
0.50978
0.5
0.49022
0.48532
0.48532
0.48532
0.48043
0.48043
0.48532
0.48532
0.48532
0.48532
0.49022
0.49022
0.49022
0.48532
0.48532
0.48532
0.49022
0.49022
0.48532
0.48532
0.48532
0.48532
0.48532
0.48532
0.48532
0.48532
0.48532
0.48532
0.48043
0.48532
0.48532
0.49022
0.49511
0.49511
0.50489
0.5
0.49511
0.49511
0.49022
0.49022
0.49022
0.49022
0.48532
0.48532
0.48532
0.48532
0.49022
0.50978
0.54501
0.57534
0.58023
0.49511
0.3953
0.35029
0.37965
0.42955
0.47456
0.49511
0.5
0.50489
0.50489
0.50489
0.50978
0.50978
0.50978
0.51468
0.51468
0.51468
0.51957
0.52544
0.53033
0.54012
0.5499
0.55969
0.56458
0.57045
0.57534
0.57534
0.57045
0.55969
0.5499
0.54012
0.52544
0.50978
0.49511
0.49022
0.48532
0.48532
0.48532
0.48532
0.48532
0.48532
0.48532
0.48532
0.48532
0.48532
0.49022
0.49022
0.49022
0.49022
0.49022
0.48532
0.48532
0.48532
0.48532
0.48532
0.48532
0.48532
0.49022
0.49022
0.49022
0.48532
0.48532
0.48532
0.48532
0.49022
0.49022
0.49511
0.5
0.50489
0.50489
0.49511
0.49511
0.49022
0.49022
0.49022
0.48532
0.48532
0.48532
0.48532
0.48532
0.48532
0.49022
0.51957
0.55479
0.58023
0.55969
0.46967
0.36008
0.31507
0.36986
0.44031
0.48532
0.50489
0.50489
0.50978
0.50978
0.51468
0.51468
0.51957
0.52544
0.52544
0.53033
0.53523
0.53523
0.54012
0.5499
0.55479
0.57045
0.57534
0.58513
0.59002
0.59491
0.59491
0.58513
0.57534
0.55969
0.54012
0.52544
0.50978
0.5
0.49511
0.49022
0.48532
0.48043
0.47456
0.47456
0.48043
0.48043
0.48532
0.48532
0.49022
0.49022
0.49022
0.49022
0.49022
0.49022
0.49022
0.49022
0.49022
0.49022
0.49022
0.49022
0.48532
0.48532
0.48532
0.48532
0.48532
0.49022
0.49022
0.49022
0.49022
0.49022
0.49511
0.5
0.50489
0.50489
0.50489
0.5
0.49511
0.49022
0.49022
0.48532
0.48043
0.48043
0.48043
0.48532
0.48532
0.49511
0.51957
0.55479
0.58023
0.58513
0.49022
0.38454
0.33464
0.36986
0.43542
0.48532
0.5
0.50489
0.50978
0.50978
0.51468
0.51468
0.51957
0.51957
0.52544
0.52544
0.53033
0.53033
0.53523
0.54012
0.5499
0.55479
0.56458
0.57534
0.58023
0.58023
0.58023
0.58023
0.57534
0.55969
0.54012
0.52544
0.50978
0.49511
0.49022
0.48532
0.48043
0.48043
0.47456
0.47456
0.47456
0.47456
0.47456
0.47456
0.48043
0.48532
0.48532
0.48532
0.48532
0.48532
0.48532
0.48532
0.48532
0.48532
0.48532
0.48532
0.49022
0.49022
0.49022
0.49022
0.48532
0.48532
0.48532
0.48532
0.48532
0.49022
0.49511
0.5
0.50489
0.50489
0.5
0.49511
0.49022
0.48532
0.48532
0.48532
0.48532
0.48532
0.48043
0.48043
0.48532
0.5
0.53523
0.57045
0.57534
0.51957
0.41977
0.35519
0.35029
0.40998
0.45988
0.48532
0.49511
0.49511
0.5
0.5
0.50489
0.50489
0.50978
0.50978
0.51468
0.51468
0.51957
0.52544
0.53033
0.53523
0.54012
0.5499
0.55969
0.55969
0.57045
0.57045
0.55969
0.55969
0.5499
0.53523
0.52544
0.50978
0.5
0.49022
0.48532
0.48532
0.48043
0.48043
0.48532
0.48532
0.48532
0.48532
0.48532
0.48532
0.48532
0.48532
0.48532
0.49022
0.49022
0.49022
0.49022
0.49022
0.49022
0.48532
0.48532
0.48532
0.48532
0.48532
0.49022
0.49022
0.49022
0.49022
0.49022
0.49511
0.49511
0.5
0.50489
0.50978
0.50978
0.50978
0.50489
0.5
0.49511
0.49511
0.49511
0.49022
0.49022
0.49022
0.49022
0.49022
0.49511
0.52544
0.55969
0.58023
0.5499
0.45988
0.36986
0.35029
0.38943
0.44521
0.48532
0.49511
0.5
0.50489
0.50489
0.50978
0.50978
0.50978
0.51468
0.51468
0.51957
