0.44458
0.44458
0.44458
0.44458
0.44458
0.44458
0.44458
0.43966
0.43966
0.43473
0.41995
0.41502
0.41995
0.41502
0.38547
0.36946
0.34975
0.3399
0.33498
0.35468
0.38547
0.4101
0.41995
0.42488
0.41995
0.41995
0.41995
0.41502
0.4101
0.43966
0.35961
0.16995
0.065271
-0.050493
0.11453
0.25985
0.39532
0.46059
0.5
0.51478
0.50985
0.51478
0.50493
0.50985
0.5197
0.51478
0.51478
0.52463
0.5197
0.52956
0.5197
0.53941
0.53448
0.56034
0.56034
0.58005
0.57512
0.58005
0.57512
0.56034
0.53448
0.52463
0.50493
0.49015
0.47537
0.4803
0.46059
0.44458
0.43473
0.4298
0.43966
0.42488
0.41995
0.42488
0.4298
0.43966
0.4298
0.4298
0.4298
0.4298
0.43473
0.43966
0.42488
0.41502
0.4101
0.41502
0.4101
0.40517
0.41995
0.39039
0.36453
0.34975
0.33005
0.33005
0.35961
0.39039
0.41995
0.43966
0.44458
0.44951
0.44458
0.42488
0.39532
0.36453
0.36946
0.30049
0.11453
0.0049261
-0.12438
0.0049261
0.15517
0.29557
0.39532
0.44951
0.46552
0.47044
0.4803
0.49015
0.48522
0.5
0.50493
0.50985
0.51478
0.52463
0.52956
0.53448
0.54557
0.54557
0.56527
0.57512
0.58498
0.58498
0.58005
0.5702
0.56034
0.53941
0.52956
0.5
0.48522
0.46552
0.44458
0.4298
0.41995
0.41502
0.41502
0.41502
0.4101
0.40517
0.40517
0.4101
0.4101
0.41995
0.41502
0.43473
0.41995
0.41995
0.41502
0.41995
0.41502
0.40517
0.41995
0.4101
0.40025
0.39532
0.41502
0.40025
0.37562
0.35468
0.33498
0.33005
0.35468
0.38547
0.40517
0.4298
0.43473
0.43473
0.43473
0.43966
0.44458
0.4298
0.44458
0.39532
0.23522
0.11946
-0.0049261
0.11453
0.26478
0.38547
0.46059
0.49015
0.5
0.50493
0.5
0.49507
0.49507
0.49507
0.5
0.49507
0.5
0.5
0.49507
0.50985
0.50985
0.5197
0.53448
0.54557
0.56034
0.56527
0.56034
0.56034
0.55049
0.53448
0.51478
0.49015
0.47044
0.46059
0.44458
0.42488
0.41995
0.4101
0.4101
0.40517
0.39532
0.39532
0.39532
0.39532
0.4101
0.40517
0.4101
0.40517
0.4101
0.4101
0.4101
0.4101
0.40517
0.39532
0.40025
0.39532
0.39532
0.39039
0.40025
0.37562
0.35961
0.34483
0.32512
0.32512
0.3399
0.36453
0.39532
0.40517
0.4101
0.41502
0.4101
0.4101
0.4101
0.40025
0.41995
0.38547
0.21552
0.080049
-0.060345
-0.065271
0.19458
0.33498
0.43473
0.4803
0.49015
0.5
0.49507
0.49507
0.49507
0.49507
0.5
0.50493
0.50493
0.50493
0.50985
0.51478
0.52463
0.53448
0.54557
0.55542
0.56527
0.5702
0.57512
0.56527
0.55049
0.53448
0.5197
0.49507
0.47537
0.46059
0.44458
0.42488
0.41502
0.40517
0.40025
0.40517
0.40517
0.41502
0.41502
0.41995
0.41502
0.41995
0.41502
0.41995
0.41995
0.43473
0.43473
0.43473
0.4298
0.4298
0.4298
0.42488
0.42488
0.43473
0.41502
0.39532
0.36946
0.35468
0.35468
0.36946
0.39532
0.41502
0.43473
0.44458
0.44458
0.44458
0.44458
0.44458
0.43966
0.4298
0.46552
0.33005
0.1798
0.045567
-0.014778
0.20443
0.3399
0.43966
0.48522
0.5
0.51478
0.51478
0.51478
0.51478
0.50985
0.51478
0.51478
0.50985
0.51478
0.50985
0.51478
0.52956
0.52463
0.53448
0.54557
0.53941
0.56034
0.56034
0.56527
0.55049
0.53448
0.52463
0.50985
0.49015
0.47537
0.46552
0.45443
0.44458
0.43473
0.4298
0.42488
0.42488
0.42488
0.41995
0.42488
0.41995
0.41995
0.41995
0.41995
0.41995
0.41995
0.4101
0.41995
0.41995
0.41995
0.4101
0.40517
0.40025
0.40517
0.4101
0.36946
0.35468
0.34975
0.32512
0.33005
0.35468
0.38054
0.40025
0.40025
0.40025
0.4101
0.41502
0.41995
0.42488
0.40517
0.41995
0.32512
0.15517
0.024631
-0.060345
0.099754
0.23522
0.35961
0.43473
0.46552
0.4803
0.48522
0.47537
0.47044
0.49015
0.47537
0.47044
0.49015
0.49015
0.48522
0.4803
0.49015
0.49507
0.50985
0.51478
0.53448
0.55049
0.55542
0.53941
0.55049
0.53448
0.50985
0.49507
0.4803
0.46552
0.43966
0.41995
0.41502
0.40025
0.39532
0.39039
0.39532
0.39532
0.40025
0.40025
0.40517
0.4101
0.41995
0.4298
0.41995
0.41502
0.41995
0.4101
0.4101
0.40025
0.40517
0.4101
0.40517
0.40517
0.41995
0.40025
0.36946
0.34483
0.33005
0.32512
0.3399
0.36946
0.39039
0.40025
0.41502
0.4298
0.42488
0.41502
0.4101
0.41502
0.4298
0.43473
0.22537
0.094828
-0.039409
-0.060345
0.19458
0.33498
0.4298
0.47537
0.48522
0.4803
0.48522
0.49015
0.49015
0.48522
0.48522
0.49015
0.49015
0.49015
0.49015
0.49015
0.49507
0.49507
0.51478
0.52463
0.54557
0.53941
0.56034
0.55049
0.54557
0.52463
0.5197
0.5
0.4803
0.44951
0.42488
0.41502
0.40517
0.41502
0.40517
0.41502
0.39532
0.4101
0.40025
0.4298
0.43473
0.44458
0.43966
0.44951
0.44458
0.45443
0.43473
0.43966
0.41995
0.4298
0.41502
0.41995
0.41502
0.43473
0.40025
0.36946
0.35961
0.34975
0.34483
0.37562
0.40517
0.42488
0.44458
0.44458
0.45443
0.44458
0.45443
0.44951
0.46059
0.4298
0.47044
0.30049
0.15025
-0.0098522
-0.050493
0.17488
0.31527
0.4101
0.47044
0.4803
0.49015
0.4803
0.48522
0.49015
0.48522
0.49015
0.48522
0.50493
0.48522
0.5
0.49507
0.51478
0.51478
0.53448
0.53941
0.5702
0.56034
0.5702
0.56034
0.5702
0.54557
0.52956
0.50985
0.49507
0.47537
0.47537
0.46059
0.45443
0.44458
0.43966
0.44458
0.4298
0.43966
0.4298
0.44951
0.44458
0.45443
0.44458
0.46059
0.44458
0.44951
0.43966
0.44458
0.44458
0.44951
0.43966
0.44458
0.44458
0.4298
0.39039
0.36946
0.34483
0.33498
0.3399
0.37562
0.39532
0.41502
0.42488
0.4298
0.43966
0.41995
0.43473
0.41995
0.43966
0.45443
0.31034
0.14532
0.0049261
-0.060345
0.17488
0.29557
0.40517
0.44951
0.47044
0.47537
0.46552
0.47044
0.46552
0.47537
0.46552
0.46552
0.46059
0.46552
0.46552
0.47537
0.46552
0.48522
0.4803
0.49507
0.5
0.5197
0.52463
0.52956
0.50493
0.5197
0.47537
0.48522
0.44458
0.43473
0.4101
0.39532
0.41502
0.38054
0.40025
0.36946
0.40025
0.38054
0.39039
0.38054
0.38547
0.37562
0.39532
0.39532
0.39532
0.39532
0.40025
0.39532
0.40517
0.39532
0.40517
0.39532
0.40517
0.39532
0.39532
0.39532
0.38547
0.35468
0.34483
0.3202
0.31527
0.32512
0.35961
0.38054
0.39532
0.40025
0.39532
0.40517
0.40025
0.41502
0.39532
0.4298
0.38054
0.21059
0.065271
-0.080049
-0.089901
0.18473
0.31527
0.43473
0.47044
0.49507
0.5
0.49507
0.50493
0.5
0.5
0.50493
0.50985
0.5
0.51478
0.50985
0.5197
0.51478
0.53448
0.53941
0.56034
0.56527
0.58498
0.57512
0.58005
0.56034
0.55542
0.52463
0.50985
0.4803
0.46552
0.43966
0.4298
0.41502
0.41502
0.40517
0.4101
0.41502
0.4101
0.41995
0.41995
0.42488
0.41995
0.43473
0.4298
0.43966
0.42488
0.4298
0.41995
0.42488
0.41502
0.41995
0.4101
0.4101
0.4101
0.4101
0.36946
0.36453
0.3399
0.32512
0.33498
0.35961
0.38547
0.40517
0.41502
0.40517
0.41995
0.4101
0.41995
0.40517
0.41502
0.42488
0.28941
0.10961
-0.024631
-0.094828
0.12562
0.25985
0.39532
0.44951
0.4803
0.48522
0.49015
0.48522
0.49015
0.49015
0.49507
0.49015
0.5
0.50493
0.5
0.51478
0.51478
0.52956
0.52956
0.55049
0.55542
0.5702
0.5702
0.57512
0.55542
0.55049
0.52463
0.51478
0.48522
0.47044
0.44951
0.44458
0.4298
0.41995
0.40517
0.41502
0.41995
0.41995
0.41502
0.41995
0.4298
0.42488
0.43966
0.4298
0.44458
0.43966
0.44458
0.43473
0.43966
0.42488
0.43473
0.41995
0.4298
0.42488
0.41502
0.39039
0.36946
0.34483
0.34975
0.35468
0.39039
0.41995
0.41995
0.42488
0.41995
0.42488
0.41502
0.41995
0.41502
0.43966
0.44458
0.25
0.094828
-0.034483
-0.065271
0.2303
0.34975
0.43966
0.47044
0.49015
0.49015
0.5
0.48522
0.49507
0.50493
0.48522
0.50493
0.4803
0.50985
0.4803
0.50493
0.5
0.50985
0.50493
0.52463
0.53448
0.53941
0.52956
0.53448
0.52463
0.51478
0.49507
0.49015
0.46552
0.46552
0.43966
0.43473
0.41995
0.41995
0.4101
0.41502
0.40517
0.4101
0.40517
0.40025
0.4101
0.40025
0.4101
0.40517
0.41995
0.40517
0.41502
0.40517
0.4101
0.40517
0.4101
0.40025
0.40517
0.39532
0.4101
0.38547
0.36946
0.34483
0.33005
0.32512
0.3202
0.35961
0.39039
0.39532
0.4101
0.41502
0.40025
0.4101
0.40517
0.41502
0.40025
0.41995
0.21059
0.065271
-0.084975
-0.10468
0.16995
0.31527
0.4101
0.46552
0.47537
0.48522
0.4803
0.49015
0.48522
0.49015
0.48522
0.49015
0.49015
0.49015
0.49507
0.49015
0.50985
0.51478
0.53448
0.53941
0.56034
0.56034
0.5702
0.56034
0.56034
0.53448
0.52463
0.49507
0.48522
0.45443
0.44458
0.42488
0.41995
0.4101
0.40517
0.4101
0.40025
0.4101
0.40517
0.41995
0.41502
0.42488
0.41995
0.4298
0.42488
0.43966
0.4298
0.43473
0.41995
0.42488
0.41995
0.42488
0.4101
0.41995
0.4101
0.39039
0.36453
0.34975
0.33005
0.3399
0.35961
0.39039
0.40025
0.4101
0.41995
0.41502
0.41995
0.41502
0.41995
0.40025
0.43473
0.28941
0.12562
-0.034483
-0.094828
0.12562
0.27956
0.39532
0.46552
0.48522
0.5
0.49507
0.5
0.49015
0.50493
0.49507
0.50493
0.50985
0.50493
0.51478
0.51478
0.52463
0.53448
0.54557
0.55542
0.57512
0.57512
0.58498
0.58005
0.57512
0.55542
0.53448
0.51478
0.5
0.47044
0.46059
0.43966
0.43473
0.41995
0.41995
0.4101
0.41995
0.41502
0.42488
0.41995
0.42488
0.43473
0.4298
0.44458
0.44458
0.43966
0.43473
0.43966
0.41995
0.42488
0.41995
0.41995
0.4101
0.41995
0.4101
0.38547
0.35961
0.34975
0.32512
0.33498
0.35961
0.39039
0.40517
0.41995
0.41502
0.41995
0.4101
0.40517
0.41502
0.39532
0.4298
0.29557
0.13547
-0.029557
-0.065271
0.13054
0.29557
0.40025
0.46059
0.48522
0.5
0.49015
0.50493
0.49507
0.50493
0.49507
0.50493
0.49507
0.50493
0.50985
0.51478
0.5197
0.51478
0.53448
0.53941
0.55049
0.5702
0.57512
0.5702
0.57512
0.53448
0.52956
0.50493
0.49507
0.47044
0.45443
0.43473
0.43473
0.41995
0.41995
0.40517
0.4101
0.4101
0.41502
0.41995
0.41502
0.41995
0.4298
0.41995
0.42488
0.43473
0.42488
0.4298
0.41502
0.42488
0.41502
0.41995
0.40025
0.40517
0.36453
0.34975
0.32512
0.31527
0.30049
0.33498
0.34975
0.38547
0.39532
0.39532
0.39532
0.40025
0.39532
0.39532
0.38054
0.41502
0.35468
0.17488
0.04064
-0.080049
0.075123
0.23522
0.35468
0.42488
0.46552
0.46552
0.46552
0.46059
0.46552
0.46552
0.47044
0.45443
0.46552
0.46552
0.46552
0.47044
0.46552
0.47537
0.48522
0.49015
0.49507
0.50985
0.51478
0.5197
0.51478
0.50493
0.49015
0.4803
0.46059
0.44951
0.4298
0.42488
0.4101
0.40517
0.39532
0.40517
0.39532
0.40517
0.39532
0.39532
0.39532
0.39532
0.40025
0.39532
0.40025
0.39532
0.4101
0.40025
0.4101
0.40025
0.40517
0.39532
0.40517
0.39532
0.39532
0.39532
0.40025
0.36453
0.34975
0.32512
0.32512
0.31527
0.34483
0.36453
0.39532
0.39532
0.40517
0.4101
0.40025
0.41502
0.39532
0.40517
0.41502
0.27956
0.11453
-0.029557
-0.099754
0.12562
0.26478
0.39532
0.44951
0.48522
0.49015
0.5
0.49015
0.5
0.49015
0.49015
0.49507
0.49015
0.5
0.49507
0.50493
0.51478
0.5197
0.53448
0.54557
0.55542
0.56527
0.56034
0.57512
0.56034
0.55049
0.53448
0.51478
0.48522
0.47537
0.44458
0.43473
0.41995
0.41995
0.4101
0.41502
0.40025
0.4101
0.40025
0.41502
0.41995
0.41502
0.41995
0.42488
0.4298
0.41995
0.43473
0.42488
0.4298
0.41995
0.42488
0.41502
0.41502
0.4101
0.41502
0.36946
0.35961
0.32512
0.3399
0.33005
0.37562
0.39039
0.41995
0.42488
0.41502
0.41995
0.41995
0.42488
0.41502
0.42488
0.43966
0.26478
0.099754
-0.044335
-0.099754
0.15517
0.29557
0.4101
0.46059
0.49015
0.49015
0.5
0.49507
0.50493
0.49507
0.50985
0.49015
0.50493
0.5
0.50985
0.51478
0.5197
0.52463
0.53941
0.55542
0.56527
0.57512
0.57512
0.58005
0.56034
0.55049
0.53448
0.51478
0.49015
0.4803
0.44951
0.43966
0.42488
0.42488
0.41502
0.41502
0.4101
0.41995
0.41502
0.41995
0.41995
0.4298
0.43473
0.4298
0.44458
0.4298
0.43966
0.42488
0.43966
0.42488
0.4298
0.41995
0.41995
0.4101
0.38054
0.35468
0.3399
0.32512
0.33498
0.35468
0.39039
0.40025
0.41995
0.4101
0.41995
0.41995
0.41502
0.40517
0.40025
0.43966
0.30049
0.12562
-0.014778
-0.070197
0.1601
0.30049
0.40517
0.46552
0.49015
0.5
0.49507
0.50493
0.49507
0.5
0.49015
0.5
0.49015
0.5
0.49015
0.50985
0.51478
0.52463
0.52956
0.53448
0.55049
0.56034
0.56527
0.56527
0.56034
0.54557
0.52956
0.51478
0.49015
0.47537
0.46059
0.44458
0.43966
0.42488
0.41995
0.4101
0.41995
0.41502
0.41995
0.41502
0.42488
0.41995
0.4298
0.41995
0.43473
0.4298
0.42488
0.43473
0.42488
0.4298
0.41995
0.42488
0.41995
0.40025
0.36946
0.35468
0.3399
0.34483
0.35961
0.39039
0.40025
0.41995
0.41502
0.4298
0.41995
0.42488
0.41502
0.41995
0.43473
0.43966
0.19951
0.070197
-0.050493
0.084975
0.25
0.37562
0.44458
0.47044
0.48522
0.48522
0.49015
0.48522
0.48522
0.48522
0.49015
0.4803
0.49015
0.48522
0.49015
0.49015
0.5
0.5
0.51478
0.5197
0.52956
0.53448
0.53448
0.53941
0.52956
0.51478
0.50493
0.48522
0.47044
0.46059
0.44458
0.43966
0.42488
0.4298
0.41502
0.41995
0.40517
0.4101
0.40025
0.4101
0.4101
0.41502
0.40517
0.4101
0.4101
0.4101
0.4101
0.4101
0.40517
0.40025
0.4101
0.40517
0.40025
0.4101
0.41502
0.36946
0.35468
0.33005
0.32512
0.33005
0.36453
0.38547
0.40025
0.40517
0.41995
0.4101
0.41995
0.40517
0.4101
0.42488
0.40025
0.21059
0.065271
-0.089901
-0.10468
0.1798
0.3202
0.41995
0.46059
0.4803
0.48522
0.49015
0.48522
0.49015
0.48522
0.49015
0.48522
0.49507
0.49507
0.50493
0.5
0.51478
0.51478
0.53448
0.53941
0.56527
0.56034
0.57512
0.56527
0.56034
0.53448
0.5197
0.49507
0.4803
0.46059
0.43966
0.42488
0.41502
0.4101
0.40025
0.4101
0.39532
0.40517
0.39532
0.4101
0.40517
0.41995
0.41502
0.41995
0.4101
0.41995
0.41502
0.41995
0.41502
0.41502
0.40025
0.39532
0.4101
0.38547
0.36453
0.34975
0.33005
0.32512
0.34483
0.36946
0.39532
0.40517
0.41995
0.41502
0.41995
0.4101
0.41502
0.39532
0.43966
0.37562
0.18966
0.045567
-0.094828
0.019704
0.21059
0.3399
0.43473
0.47044
0.49015
0.49015
0.49015
0.49507
0.49015
0.5
0.48522
0.49015
0.49015
0.50493
0.49507
0.50985
0.50493
0.52463
0.52956
0.54557
0.55542
0.56527
0.56034
0.56034
0.54557
0.53448
0.51478
0.5
0.47537
0.46059
0.43966
0.4298
0.41995
0.41502
0.41995
0.40517
0.41502
0.4101
0.41995
0.41995
0.4298
0.42488
0.44458
0.44458
0.45443
0.44458
0.45443
0.44951
0.45443
0.44458
0.44458
0.44951
0.42488
0.40025
0.39039
0.36453
0.35468
0.36946
0.39532
0.42488
0.43473
0.44458
0.43966
0.44951
0.44458
0.44951
0.43473
0.45443
0.46552
0.28448
0.14039
0.0049261
-0.039409
0.2303
0.35468
0.44951
0.48522
0.49507
0.50493
0.5
0.50985
0.49507
0.5
0.49507
0.50985
0.49015
0.5
0.49507
0.50493
0.51478
0.51478
0.51478
0.53448
0.53448
0.53941
0.53941
0.54557
0.52956
0.52463
0.50493
0.49015
0.47537
0.46552
0.44458
0.43966
0.4298
0.42488
0.4298
0.41995
0.41502
0.4101
0.41995
0.4101
0.4101
0.41502
0.41995
0.41502
0.41995
0.41995
0.41995
0.41502
0.41995
0.41502
0.4101
0.40517
0.41502
0.39039
0.36946
0.34975
0.3399
0.32512
0.3399
0.36946
0.39039
0.40517
0.41502
0.41995
0.41502
0.41995
0.41502
0.41995
0.40517
0.42488
0.20443
0.075123
-0.075123
-0.084975
0.19458
0.33005
0.41995
0.47044
0.49015
0.49015
0.48522
0.4803
0.49015
0.49015
0.49015
0.48522
0.49015
0.48522
0.5
0.49507
0.50985
0.51478
0.52956
0.53941
0.56034
0.56034
0.5702
0.56034
0.55542
0.52956
0.5197
0.49507
0.48522
0.46059
0.44458
0.42488
0.41995
0.40517
0.4101
0.41502
0.40025
0.40517
0.39532
0.40517
0.40025
0.4101
0.40517
0.41502
0.41502
0.41995
0.41502
0.41995
0.41995
0.41502
0.40517
0.41995
0.40025
0.38054
0.34975
0.34483
0.32512
0.3399
0.36453
0.39039
0.40517
0.4101
0.41995
0.4101
0.41502
0.40517
0.4101
0.39532
0.41995
0.22537
0.084975
-0.065271
-0.089901
0.16995
0.31034
0.4101
0.47044
0.48522
0.49015
0.48522
0.49507
0.5
0.49015
0.49507
0.49015
0.5
0.50493
0.50985
0.50493
0.51478
0.5197
0.53448
0.55049
0.5702
0.56527
0.58005
0.5702
0.56527
0.53448
0.52956
0.49507
0.49015
0.46059
0.45443
0.43473
0.43473
0.41995
0.41995
0.41502
0.41995
0.41995
0.41502
0.41995
0.4298
0.43473
0.4298
0.44458
0.43473
0.44458
0.43473
0.43966
0.43473
0.42488
0.41995
0.4298
0.39039
0.38054
0.34975
0.34483
0.33005
0.35961
0.39039
0.40517
0.41502
0.4101
0.41502
0.4101
0.41995
0.41502
0.40517
0.4298
0.32512
0.13054
-0.0049261
-0.11453
0.080049
0.23522
0.38054
0.44458
0.4803
0.4803
0.49015
0.49015
0.50493
0.49015
0.5
0.5
0.5
0.50493
0.5
0.51478
0.50985
0.52463
0.53448
0.54557
0.55542
0.5702
0.58005
0.58498
0.56527
0.56034
0.53448
0.52463
0.5
0.49015
0.47044
0.46059
0.44458
0.43473
0.42488
0.41995
0.41502
0.41995
0.42488
0.41995
0.42488
0.43473
0.43966
0.44458
0.44458
0.44458
0.43966
0.44458
0.44458
0.43473
0.44458
0.41502
0.40517
0.37562
0.35468
0.34483
0.35468
0.37562
0.4101
0.41995
0.42488
0.41995
0.42488
0.41995
0.41995
0.41502
0.4298
0.44458
0.27956
0.12562
-0.014778
-0.065271
0.18473
0.32512
0.41502
0.46552
0.47537
0.4803
0.47537
0.48522
0.4803
0.49015
0.4803
0.48522
0.4803
0.4803
0.47537
0.49015
0.49015
0.5
0.50985
0.51478
0.52956
0.53941
0.55049
0.54557
0.53448
0.52463
0.50985
0.49015
0.4803
0.46059
0.44951
0.43473
0.4298
0.41502
0.41995
0.40517
0.4101
0.39532
0.39532
0.39039
0.40025
0.39532
0.40025
0.40517
0.40025
0.4101
0.40517
0.41502
0.40517
0.41502
0.40517
0.40517
0.4101
0.41502
0.36946
0.36453
0.3399
0.33005
0.32512
0.35961
0.38547
0.40517
0.40517
0.41502
0.40025
0.4101
0.39532
0.39532
0.40517
0.41995
0.25493
0.094828
-0.065271
-0.10961
0.15025
0.28448
0.40517
0.44951
0.4803
0.48522
0.49015
0.49015
0.49507
0.49015
0.49507
0.49015
0.50493
0.49507
0.50493
0.50493
0.51478
0.52463
0.53448
0.54557
0.56527
0.5702
0.57512
0.58005
0.55542
0.57512
0.52463
0.53448
0.4803
0.49015
0.44458
0.44951
0.41995
0.43966
0.40025
0.41995
0.39532
0.41995
0.39532
0.41995
0.40517
0.42488
0.4298
0.41995
0.4298
0.42488
0.4298
0.42488
0.4298
0.41995
0.4298
0.42488
0.39532
0.37562
0.38054
0.34483
0.34975
0.36453
0.39532
0.40517
0.4298
0.41995
0.43966
0.4298
0.43473
0.41995
0.43473
0.44951
0.30542
0.12562
-0.019704
-0.080049
0.14532
0.28448
0.4101
0.46552
0.50985
0.51478
0.5
0.50985
0.49015
0.49507
0.49015
0.50985
0.50493
0.51478
0.51478
0.52463
0.53448
0.53448
0.53448
0.55542
0.56034
0.58005
0.56527
0.57512
0.58005
0.5702
0.52956
0.50493
0.49507
0.47044
0.45443
0.44458
0.43473
0.41995
0.43473
0.41995
0.40517
0.40025
0.41995
0.4101
0.42488
0.41995
0.43966
0.41995
0.4298
0.42488
0.4298
0.41995
0.4298
0.41502
0.41995
0.40517
0.36946
0.34975
0.33498
0.32512
0.3202
0.35468
0.37562
0.39039
0.39532
0.41995
0.41502
0.40517
0.39532
0.39532
0.41995
0.39039
0.22537
0.084975
-0.065271
-0.094828
0.1601
0.31034
0.40517
0.44458
0.46059
0.47044
0.46552
0.45443
0.47044
0.46552
0.47537
0.46552
0.45443
0.44458
0.48522
0.48522
0.4803
0.4803
0.5
0.50985
0.51478
0.52956
0.53941
0.52463
0.52956
0.50493
0.49507
0.4803
0.47537
0.43473
0.4101
0.4298
0.4101
0.40517
0.39532
0.38547
0.37562
0.38547
0.39532
0.39532
0.39039
0.40025
0.40517
0.41995
0.39532
0.4101
0.4101
0.41502
0.41502
0.41502
0.40025
0.38547
0.35468
0.35961
0.3202
0.32512
0.34975
0.38054
0.38547
0.39532
0.40517
0.40517
0.41995
0.4298
0.4101
0.39532
0.44951
0.36946
0.1798
0.060345
-0.055419
0.099754
0.2697
0.37562
0.46059
0.49015
0.5
0.50493
0.5
0.49015
0.51478
0.5
0.49015
0.51478
0.5
0.50985
0.49507
0.50985
0.51478
0.52463
0.53448
0.55049
0.53448
0.57512
0.55542
0.5702
0.52956
0.56034
0.49507
0.50985
0.45443
0.43966
0.46059
0.4298
0.43966
0.40517
0.43473
0.39532
0.43473
0.39039
0.41502
0.4101
0.41502
0.40025
0.42488
0.42488
0.43966
0.43473
0.43966
0.41995
0.43473
0.41995
0.41502
0.38547
0.39039
0.36453
0.34975
0.32512
0.35468
0.38547
0.41502
0.41995
0.41995
0.41502
0.42488
0.4298
0.39532
0.4101
0.43966
0.3399
0.14532
-0.0049261
-0.080049
0.12562
0.25985
0.39039
0.44951
0.46552
0.47044
0.47537
0.47537
0.48522
0.47044
0.48522
0.47044
0.46552
0.47537
0.4803
0.4803
0.49015
0.49015
0.49507
0.51478
0.53448
0.53941
0.53448
0.53941
0.53448
0.52463
0.50985
0.48522
0.46552
0.46552
0.42488
0.41995
0.40517
0.40517
0.39039
0.37562
0.38054
0.37562
0.36946
0.37562
0.36453
0.36946
0.38054
0.36946
0.39532
0.39039
0.39532
0.38547
0.40517
0.38547
0.40025
0.38547
0.36946
0.3202
0.31527
0.32512
0.3202
0.33005
0.36453
0.37562
0.40517
0.38547
0.38547
0.36453
0.39039
0.38547
0.40025
0.41502
0.2697
0.080049
-0.039409
-0.094828
0.094828
0.22537
0.35961
0.4298
0.43966
0.45443
0.43473
0.44458
0.42488
0.44458
0.44951
0.45443
0.41995
0.43966
0.43473
0.46059
0.4298
0.44458
0.46059
0.45443
0.5
0.49015
0.49015
0.48522
0.50985
0.44458
0.46552
0.41995
0.4298
0.41502
0.36946
0.36453
0.40517
0.35961
0.34975
0.33005
0.32512
0.34975
0.33005
0.30542
0.34975
0.33005
0.34975
0.32512
0.3202
0.34975
0.33005
0.35468
0.34483
0.35961
0.36453
0.38054
0.29557
0.31034
0.27956
0.29557
0.28448
0.31034
0.30049
0.37562
0.33498
0.39039
0.33498
0.35961
0.38547
0.34975
0.3399
0.39532
0.22044
0.084975
-0.11946
-0.12931
0.11946
0.25985
0.39039
0.4298
0.42488
0.46552
0.48522
0.42488
0.44951
0.44951
0.4803
0.46552
0.46552
0.46059
0.49015
0.49507
0.50493
0.49015
0.52463
0.54557
0.53448
0.5702
0.53448
0.59483
0.5702
0.5899
0.52956
0.50493
0.49507
0.50985
0.45443
0.47537
0.44458
0.46059
0.41995
0.42488
0.41995
0.41502
0.44458
0.46552
0.43966
0.46552
0.42488
0.47537
0.46552
0.46059
0.44951
0.48522
0.44458
0.46059
0.44951
0.45443
0.43966
0.41995
0.39532
0.39532
0.37562
0.36946
0.41502
0.45443
0.46059
0.42488
0.47044
0.48522
0.45443
0.43966
0.43473
0.4803
0.38054
0.1798
0.04064
-0.084975
0.14039
0.27463
0.41995
0.4803
0.50985
0.52956
0.51478
0.51478
0.5197
0.51478
0.52463
0.54557
0.52956
0.5197
0.51478
0.5197
0.54557
0.56034
0.53941
0.58005
0.57512
0.5702
0.60468
0.59975
0.60468
0.57512
0.56034
0.53941
0.5197
0.49507
0.48522
0.46059
0.46552
0.43966
0.46059
0.41995
0.44458
0.44458
0.44458
0.44458
0.46552
0.46552
0.47044
0.45443
0.48522
0.46552
0.46552
0.46552
0.46552
0.44458
0.45443
0.46552
0.44951
0.41502
0.40025
0.41995
0.37562
0.38547
0.41995
0.43966
0.44951
0.44458
0.46059
0.47044
0.45443
0.47044
0.42488
0.47044
0.49015
0.26478
0.094828
-0.024631
-0.044335
0.19951
0.3399
0.43473
0.50493
0.5197
0.51478
0.5197
0.5197
0.54557
0.51478
0.49015
0.5
0.51478
0.5197
0.52463
0.52956
0.55049
0.55542
0.56527
0.5899
0.59975
0.60468
0.5899
0.62438
0.59483
0.5899
0.53448
0.52463
0.50985
0.49015
0.45443
0.46059
0.46552
0.4298
0.44458
0.43966
0.44951
0.41995
0.41502
0.43966
0.46552
0.45443
0.43473
0.46059
0.44951
0.47044
0.46552
0.44458
0.43473
0.42488
0.4298
0.38054
0.4298
0.34483
0.17488
0.014778
-0.094828
0.014778
0.17488
0.28941
0.37562
0.44458
0.46552
0.43473
0.42488
0.44458
0.43966
0.47044
0.46059
0.47044
0.46552
0.5
0.47537
0.44951
0.48522
0.50493
0.54557
0.52956
0.50493
0.57512
0.47044
0.5
0.46552
0.4803
0.43473
0.47044
0.41502
0.3202
0.36453
0.34483
0.36453
0.3202
0.41995
0.34975
0.34483
0.36946
0.35961
0.39039
0.36946
0.40517
0.36453
0.4298
0.34483
0.35961
0.39532
0.4101
0.33498
0.36946
0.31527
0.42488
0.56034
0.6798
0.8202
0.95936
1
1.085
0.97537
0.79557
0.4803
0.30542
0.21059
0.24507
0.17488
0.2303
0.20443
0.19458
0.21059
0.19458
0.18473
0.2303
0.19458
0.1601
0.1601
0.14532
0.12562
0.11453
0.11453
0.10961
0.13054
0.16502
0.19458
0.21059
0.24507
0.2697
0.30049
0.33005
0.39532
0.4101
0.43966
0.43473
0.46059
0.46059
0.46552
0.45443
0.49507
0.50493
0.51478
0.47044
0.46552
0.49015
0.47044
0.46552
0.49015
0.4803
0.48522
0.49507
0.47044
0.47044
0.47044
0.4803
0.46552
0.47044
0.46552
0.47537
0.46059
0.46552
0.44951
0.46059
0.46059
0.47044
0.44951
0.45443
0.47537
0.4803
0.44951
0.46059
0.47044
0.46059
0.46552
0.46059
0.47044
0.46552
0.47044
0.46552
0.47537
0.46552
0.46552
0.46059
0.47044
0.46059
0.46552
0.46552
0.45443
0.43473
0.44458
0.41502
0.4101
0.4298
0.43966
0.43473
0.46059
0.47537
0.47044
0.49015
0.46552
0.44951
0.48522
0.51478
0.30542
0.15025
0.019704
-0.019704
0.22044
0.34483
0.44951
0.4803
0.47537
0.49507
0.48522
0.50493
0.50985
0.5
0.47044
0.46552
0.46552
0.4803
0.50985
0.49015
0.49015
0.48522
0.5
0.50985
0.51478
0.52463
0.53941
0.53448
0.56034
0.52463
0.50493
0.5
0.47537
0.46552
0.46552
0.45443
0.44458
0.42488
0.40517
0.37562
0.39039
0.39532
0.39039
0.41502
0.39532
0.4101
0.42488
0.4101
0.41995
0.43473
0.41995
0.41995
0.42488
0.4101
0.42488
0.4298
0.40025
0.42488
0.41502
0.40025
0.35961
0.34483
0.35961
0.35468
0.33498
0.35468
0.38547
0.39532
0.4101
0.39039
0.41502
0.41995
0.4101
0.39532
0.38054
0.43473
0.28448
0.12562
-0.0049261
-0.075123
0.15025
0.27463
0.38054
0.41995
0.46552
0.49015
0.44951
0.46552
0.49015
0.5
0.44458
0.48522
0.47044
0.5
0.44951
0.46059
0.44458
0.47537
0.5
0.49015
0.46059
0.50985
0.50985
0.52956
0.47537
0.49507
0.43473
0.49015
0.42488
0.39039
0.40517
0.36946
0.38547
0.35961
0.37562
0.40025
0.34483
0.37562
0.36453
0.40025
0.41995
0.36946
0.39039
0.4101
0.41995
0.38547
0.39532
0.40025
0.41995
0.39532
0.4101
0.39039
0.38054
0.40025
0.41502
0.38054
0.35961
0.3399
0.34483
0.35961
0.38547
0.40517
0.41995
0.4298
0.43473
0.44458
0.44458
0.44951
0.4298
0.44458
0.49015
0.41502
0.19458
0.050493
-0.029557
0.13547
0.27956
0.42488
0.49507
0.52956
0.53448
0.52463
0.53941
0.54557
0.55049
0.53448
0.54557
0.52956
0.53448
0.54557
0.53448
0.55542
0.56527
0.58005
0.57512
0.58498
0.60468
0.60468
0.60961
0.60468
0.5899
0.5702
0.56527
0.53448
0.50985
0.4803
0.47044
0.45443
0.45443
0.44951
0.44458
0.44458
0.46552
0.46552
0.4803
0.47044
0.46552
0.4803
0.46552
0.49015
0.4803
0.47044
0.48522
0.49015
0.45443
0.44458
0.44458
0.44458
0.44951
0.44458
0.44951
0.41502
0.38054
0.37562
0.38054
0.36946
0.40025
0.4101
0.43966
0.44951
0.42488
0.43966
0.43966
0.43473
0.44458
0.4298
0.47044
0.3399
0.1798
0.04064
-0.039409
0.13054
0.28448
0.4101
0.47044
0.49507
0.5197
0.47537
0.46552
0.48522
0.50493
0.49015
0.49015
0.49507
0.46552
0.50493
0.48522
0.4803
0.50493
0.51478
0.51478
0.5197
0.51478
0.55542
0.53941
0.5197
0.5
0.5197
0.49015
0.47537
0.44458
0.43473
0.40517
0.39532
0.38054
0.40025
0.39532
0.40025
0.38054
0.38547
0.39039
0.4101
0.39532
0.40025
0.39532
0.41995
0.41995
0.40025
0.4101
0.39532
0.41502
0.40025
0.39532
0.39532
0.39532
0.36946
0.39532
0.37562
0.36453
0.3399
0.33005
0.30542
0.38547
0.40517
0.40025
0.39532
0.39039
0.42488
0.39532
0.44458
0.38547
0.40025
0.43473
0.44951
0.15517
0.070197
-0.070197
0.10468
0.21059
0.37562
0.42488
0.4803
0.48522
0.47044
0.49507
0.4803
0.49507
0.46059
0.47537
0.46059
0.49015
0.47044
0.50985
0.4803
0.50493
0.49015
0.53941
0.51478
0.55049
0.55542
0.5702
0.56034
0.54557
0.52956
0.51478
0.5
0.49015
0.45443
0.44458
0.42488
0.42488
0.41995
0.43473
0.4298
0.44458
0.43473
0.43966
0.44951
0.44458
0.44951
0.44458
0.46059
0.44458
0.45443
0.44951
0.46059
0.44458
0.4298
0.43473
0.44458
0.41995
0.4298
0.43473
0.41502
0.38054
0.38547
0.35961
0.34975
0.37562
0.41502
0.42488
0.41995
0.43473
0.44458
0.44951
0.4298
0.43473
0.41995
0.44951
0.36453
0.1798
0.055419
-0.0049261
0.15025
0.29557
0.40025
0.46059
0.48522
0.49015
0.49015
0.4803
0.49015
0.48522
0.4803
0.4803
0.48522
0.4803
0.49015
0.4803
0.47537
0.49507
0.49507
0.49015
0.51478
0.5197
0.53448
0.52463
0.52956
0.52463
0.53448
0.47044
0.47537
0.44951
0.44458
0.42488
0.4298
0.41502
0.40025
0.40025
0.39532
0.40517
0.41995
0.39532
0.39039
0.4101
0.41995
0.41995
0.41502
0.4298
0.4101
0.41502
0.39532
0.40517
0.39532
0.4101
0.41995
0.40025
0.38547
0.39039
0.37562
0.35468
0.35468
0.36453
0.32512
0.31527
0.3399
0.37562
0.39532
0.41995
0.40517
0.39532
0.40517
0.38547
0.39532
0.41502
0.43473
0.27463
0.10468
-0.014778
-0.050493
0.16502
0.29557
0.38054
0.44458
0.46552
0.46059
0.46552
0.44951
0.45443
0.47044
0.46059
0.46059
0.44951
0.46552
0.46059
0.44951
0.5
0.4803
0.5
0.49015
0.52956
0.50985
0.55049
0.51478
0.53448
0.50985
0.5
0.47044
0.47537
0.43473
0.44458
0.40025
0.41995
0.38547
0.39039
0.40025
0.36946
0.4101
0.39532
0.43473
0.40025
0.41995
0.39532
0.43473
0.41502
0.44951
0.4298
0.44458
0.41502
0.44951
0.41502
0.45443
0.46059
0.49015
0.45443
0.5702
0.59975
0.69951
0.75985
0.79557
0.75
0.69458
0.77463
0.98522
1.0554
0.97044
0.74507
0.51478
0.38054
0.26478
0.25
0.20443
0.22537
0.20443
0.2303
0.18473
0.21059
0.18473
0.19951
0.14532
0.1601
0.10468
0.11453
0.070197
0.055419
0.070197
0.045567
0.075123
0.070197
0.14039
0.18966
0.24015
0.28941
0.3399
0.36453
0.4101
0.4298
0.47044
0.46552
0.5
0.47537
0.50985
0.4803
0.51478
0.49015
0.51478
0.49015
0.51478
0.50493
0.53941
0.51478
0.54557
0.55049
0.52463
0.53448
0.51478
0.54557
0.50493
0.51478
0.49015
0.51478
0.50493
0.51478
0.48522
0.5
0.46552
0.48522
0.44458
0.46552
0.43473
0.44951
0.42488
0.44458
0.39039
0.38547
0.39039
0.35468
0.3399
0.36946
0.39039
0.41502
0.41995
0.40025
0.41502
0.40025
0.4298
0.39532
0.41502
0.4101
0.31034
0.13054
0.04064
-0.039409
0.1601
0.26478
0.38054
0.41502
0.4803
0.43473
0.41995
0.47044
0.46059
0.41502
0.46059
0.4803
0.4298
0.47537
0.40517
0.43966
0.39532
0.4298
0.41502
0.46059
0.41502
0.45443
0.48522
0.52463
0.44951
0.47044
0.49015
0.47044
0.43473
0.45443
0.36946
0.43966
0.35961
0.38547
0.35468
0.34975
0.37562
0.38054
0.36453
0.34975
0.34975
0.36453
0.33005
0.35468
0.39039
0.36453
0.43966
0.36946
0.37562
0.41995
0.4298
0.38054
0.36946
0.41502
0.39039
0.34483
0.40517
0.41995
0.42488
0.36946
0.3399
0.39532
0.31527
0.38547
0.32512
0.34483
0.29557
0.38054
0.41995
0.43473
0.39532
0.4298
0.39532
0.40517
0.35961
0.43473
0.35961
0.21552
0.0049261
-0.084975
0.04064
0.21059
0.3202
0.41995
0.43966
0.45443
0.49015
0.49507
0.47044
0.5
0.43966
0.42488
0.48522
0.47044
0.50985
0.4803
0.49015
0.4803
0.53448
0.52956
0.58498
0.53448
0.5702
0.55542
0.5899
0.59483
0.58498
0.54557
0.56034
0.5197
0.5
0.50985
0.46059
0.47537
0.46059
0.49015
0.46059
0.4803
0.45443
0.48522
0.46552
0.50493
0.49015
0.50493
0.49507
0.5197
0.48522
0.5197
0.49015
0.5197
0.49507
0.50493
0.4803
0.50493
0.48522
0.47537
0.48522
0.47044
0.48522
0.44951
0.46552
0.42488
0.41995
0.44458
0.47537
0.46059
0.49015
0.48522
0.5
0.47537
0.5
0.47537
0.49015
0.5
0.43966
0.22537
0.14039
0.014778
0.1798
0.30049
0.44458
0.48522
0.53941
0.54557
0.52463
0.55049
0.5197
0.52956
0.50493
0.52956
0.5
0.52956
0.50985
0.53941
0.52463
0.56034
0.54557
0.58498
0.56527
0.60468
0.5899
0.61946
0.58005
0.59975
0.56527
0.56034
0.54557
0.53448
0.50493
0.50985
0.4803
0.47044
0.5
0.46552
0.49015
0.46059
0.4803
0.45443
0.5
0.47537
0.51478
0.50493
0.5197
0.5
0.5197
0.5
0.50493
0.49015
0.49015
0.46552
0.49015
0.45443
0.44951
0.47537
0.45443
0.42488
0.40517
0.41502
0.36453
0.39532
0.42488
0.44458
0.4298
0.47044
0.44951
0.46552
0.43473
0.46059
0.41995
0.47537
0.44458
0.30542
0.16502
0.089901
0.050493
0.28941
0.36946
0.47044
0.49507
0.50493
0.4803
0.46552
0.5
0.48522
0.49507
0.47044
0.50493
0.47537
0.50493
0.47537
0.49507
0.47044
0.51478
0.49015
0.51478
0.5
0.53448
0.51478
0.52956
0.49015
0.51478
0.47537
0.48522
0.44951
0.46552
0.43966
0.42488
0.44458
0.41995
0.43966
0.4101
0.43966
0.40517
0.41995
0.38547
0.41502
0.39039
0.41995
0.39532
0.41502
0.37562
0.40517
0.36946
0.40025
0.37562
0.40517
0.36946
0.39039
0.36946
0.39039
0.35468
0.38054
0.39039
0.34483
0.37562
0.34483
0.34975
0.30542
0.32512
0.26478
0.29557
0.3202
0.35468
0.34483
0.38054
0.34975
0.37562
0.34975
0.36946
0.34483
0.38547
0.29557
0.14039
-0.0098522
-0.094828
0.04064
0.18473
0.31527
0.38547
0.41502
0.4101
0.45443
0.4101
0.45443
0.4101
0.44458
0.41502
0.43966
0.41995
0.44458
0.41995
0.45443
0.44458
0.46059
0.47044
0.49507
0.51478
0.5197
0.49507
0.5
0.48522
0.49507
0.45443
0.41995
0.4298
0.39532
0.41502
0.36453
0.40025
0.34483
0.35468
0.31034
0.33498
0.28448
0.35961
0.33498
0.35961
0.36946
0.33498
0.28941
0.35468
0.3399
0.38547
0.32512
0.28448
0.38547
0.35468
0.31034
0.37562
0.34975
0.40025
0.34975
0.31034
0.34483
0.28448
0.30542
0.27956
0.27956
0.2697
0.38054
0.3399
0.39039
0.37562
0.35961
0.34483
0.35468
0.34975
0.4298
0.38054
0.22044
-0.0049261
-0.11946
-0.12931
0.15517
0.25
0.38054
0.41995
0.44951
0.4803
0.43966
0.4803
0.46059
0.47044
0.43966
0.49507
0.47537
0.45443
0.43473
0.53941
0.43966
0.50493
0.52463
0.49015
0.53941
0.57512
0.51478
0.53448
0.50493
0.49015
0.50493
0.49507
0.5197
0.43966
0.44951
0.37562
0.40025
0.41995
0.4298
0.36946
0.43473
0.4101
0.43473
0.39532
0.44458
0.42488
0.46552
0.42488
0.47044
0.44951
0.47537
0.4298
0.46059
0.44951
0.47044
0.43473
0.45443
0.46059
0.44458
0.4803
0.44951
0.41502
0.39039
0.4298
0.40025
0.41995
0.41502
0.46552
0.46059
0.50493
0.46552
0.49015
0.46059
0.49507
0.44951
0.52463
0.44951
0.2697
0.11946
0.014778
0.099754
0.27956
0.4101
0.5
0.52956
0.52463
0.56034
0.53448
0.56527
0.54557
0.57512
0.54557
0.57512
0.54557
0.57512
0.55542
0.58498
0.56527
0.60468
0.58498
0.62438
0.60961
0.64039
0.64532
0.61946
0.63054
0.59483
0.60468
0.56034
0.56527
0.51478
0.5197
0.47537
0.49507
0.46552
0.48522
0.46059
0.48522
0.46059
0.49015
0.46059
0.49507
0.46552
0.49507
0.46059
0.49015
0.46059
0.48522
0.44951
0.47044
0.44951
0.44458
0.47044
0.43966
0.46059
0.43473
0.45443
0.39532
0.41995
0.35961
0.36946
0.35468
0.41502
0.40517
0.44458
0.42488
0.44951
0.42488
0.45443
0.41995
0.43966
0.43966
0.44951
0.2303
0.12562
-0.014778
0.10468
0.25985
0.40517
0.46552
0.5
0.51478
0.49507
0.52463
0.5
0.53448
0.50493
0.52463
0.48522
0.50493
0.47537
0.5
0.47537
0.51478
0.49015
0.53448
0.51478
0.55542
0.53448
0.56527
0.53941
0.56034
0.53448
0.5197
0.52956
0.49015
0.49507
0.46059
0.47537
0.4298
0.44458
0.4101
0.43473
0.4101
0.42488
0.40025
0.43966
0.41502
0.44458
0.41995
0.44951
0.42488
0.44951
0.41995
0.44458
0.41995
0.43966
0.41995
0.43966
0.41995
0.4101
0.44458
0.41502
0.39532
0.37562
0.38547
0.3399
0.36453
0.35961
0.41995
0.40517
0.43966
0.41995
0.44458
0.41502
0.44458
0.40517
0.43966
0.44951
0.32512
0.15025
0.055419
-0.0049261
0.21059
0.3202
0.42488
0.46059
0.4803
0.49507
0.46552
0.49015
0.46552
0.49015
0.46552
0.49015
0.46059
0.48522
0.46552
0.49015
0.46552
0.50493
0.49015
0.5197
0.50985
0.53941
0.52956
0.55049
0.52956
0.5197
0.49507
0.4803
0.49015
0.44458
0.46552
0.41995
0.44458
0.4101
0.42488
0.39532
0.41995
0.38547
0.40517
0.38547
0.4101
0.38054
0.41995
0.39532
0.41995
0.39039
0.41995
0.38547
0.41502
0.39039
0.4101
0.41502
0.39039
0.40517
0.37562
0.40025
0.36946
0.41502
0.34975
0.36453
0.3202
0.33005
0.30049
0.35468
0.34483
0.40517
0.38054
0.41995
0.39532
0.41995
0.39039
0.41502
0.38547
0.42488
0.28448
0.14039
-0.0049261
-0.065271
0.13054
0.27463
0.39532
0.47044
0.5
0.4803
0.50493
0.47537
0.5
0.47537
0.5
0.4803
0.50985
0.48522
0.51478
0.49507
0.52956
0.51478
0.54557
0.52956
0.5702
0.55542
0.58005
0.56034
0.5702
0.54557
0.52463
0.53941
0.49015
0.49507
0.44458
0.46059
0.41502
0.43473
0.40025
0.41995
0.40025
0.42488
0.40025
0.43473
0.4101
0.44458
0.41502
0.44458
0.41502
0.43966
0.41502
0.43966
0.41502
0.43473
0.43966
0.4101
0.43966
0.40025
0.43473
0.4101
0.41502
0.35961
0.36946
0.33498
0.35468
0.34975
0.41502
0.40517
0.43473
0.41502
0.43966
0.40517
0.43966
0.40517
0.43966
0.44458
0.31034
0.13547
0.024631
-0.019704
0.19951
0.32512
0.43473
0.4803
0.49507
0.51478
0.49015
0.52463
0.49507
0.51478
0.49015
0.5197
0.49015
0.5197
0.5
0.52956
0.50493
0.53941
0.5197
0.55049
0.53448
0.57512
0.55542
0.5702
0.57512
0.53448
0.54557
0.50985
0.51478
0.47044
0.48522
0.44458
0.46552
0.42488
0.44458
0.41995
0.44458
0.41995
0.44458
0.41995
0.44951
0.42488
0.46552
0.4298
0.46552
0.43473
0.46059
0.43473
0.44951
0.4298
0.44951
0.46059
0.42488
0.46059
0.42488
0.44458
0.38547
0.39532
0.34483
0.36453
0.34975
0.41502
0.39532
0.43473
0.41502
0.44458
0.4101
0.43966
0.40025
0.41995
0.42488
0.38547
0.18473
0.080049
-0.034483
0.12562
0.26478
0.38054
0.43473
0.47044
0.4803
0.46552
0.48522
0.46059
0.47537
0.46552
0.47537
0.46059
0.47044
0.44458
0.47537
0.46059
0.48522
0.47537
0.5
0.49507
0.5197
0.51478
0.52956
0.51478
0.50985
0.51478
0.48522
0.46552
0.44458
0.44951
0.41502
0.41995
0.39039
0.40517
0.38547
0.40025
0.38054
0.39039
0.36946
0.39532
0.37562
0.39532
0.38054
0.39532
0.37562
0.40025
0.38547
0.40025
0.38547
0.38054
0.39532
0.38054
0.40025
0.38054
0.40025
0.36946
0.39532
0.38547
0.36453
0.3399
0.34483
0.30542
0.32512
0.33005
0.37562
0.36946
0.4101
0.39532
0.41502
0.39532
0.41502
0.39039
0.38547
0.41995
0.30049
0.12562
0.0098522
-0.050493
0.14039
0.2697
0.38547
0.44951
0.47044
0.49015
0.46552
0.49015
0.47044
0.49015
0.47537
0.49015
0.47537
0.5
0.4803
0.50493
0.49015
0.5197
0.51478
0.54557
0.55049
0.56527
0.5702
0.55542
0.56527
0.53941
0.54557
0.5
0.50493
0.45443
0.46059
0.41995
0.4298
0.39532
0.4101
0.38547
0.40025
0.39039
0.4101
0.39039
0.41502
0.39532
0.41995
0.40025
0.42488
0.4101
0.41995
0.40517
0.40025
0.41995
0.40025
0.41502
0.39532
0.41995
0.39532
0.41502
0.39532
0.37562
0.34483
0.34975
0.31527
0.34483
0.35468
0.39532
0.39532
0.41995
0.40025
0.42488
0.4101
0.42488
0.40025
0.43473
0.43966
0.24507
0.089901
-0.029557
-0.055419
0.18473
0.3202
0.4298
0.47537
0.48522
0.49507
0.48522
0.50493
0.49015
0.50493
0.49015
0.50985
0.49015
0.51478
0.49015
0.5197
0.50985
0.53448
0.52956
0.55542
0.55049
0.57512
0.58005
0.56034
0.57512
0.54557
0.55049
0.50985
0.49015
0.46059
0.46552
0.4298
0.44458
0.4101
0.42488
0.40517
0.41995
0.40025
0.42488
0.4101
0.4298
0.41502
0.43966
0.41995
0.43473
0.41995
0.41502
0.43473
0.4101
0.41995
0.40025
0.41995
0.39532
0.40517
0.39532
0.41995
0.37562
0.38054
0.3399
0.34483
0.32512
0.37562
0.39039
0.41502
0.40517
0.4298
0.4101
0.4298
0.41502
0.42488
0.4101
0.44458
0.3202
0.1601
0.024631
-0.034483
0.16995
0.31527
0.42488
0.4803
0.50493
0.49507
0.50985
0.49507
0.50985
0.49507
0.50493
0.49015
0.50985
0.49015
0.50985
0.49015
0.51478
0.50985
0.52956
0.52956
0.55049
0.54557
0.56034
0.54557
0.55542
0.53941
0.52956
0.50493
0.49015
0.49507
0.46059
0.44951
0.4298
0.43966
0.41995
0.42488
0.4101
0.42488
0.41995
0.43966
0.42488
0.43966
0.42488
0.44951
0.4298
0.44458
0.43473
0.4298
0.44458
0.4298
0.44458
0.41995
0.44458
0.42488
0.44458
0.39532
0.37562
0.3399
0.34975
0.32512
0.36946
0.37562
0.41995
0.39532
0.41995
0.39532
0.42488
0.39532
0.41502
0.39039
0.43966
0.30542
0.16502
0.019704
-0.050493
0.13054
0.28448
0.39039
0.44951
0.47537
0.46059
0.49015
0.46552
0.49015
0.46552
0.48522
0.46059
0.48522
0.46552
0.49015
0.46552
0.49507
0.47537
0.50493
0.49015
0.52956
0.51478
0.53941
0.54557
0.52463
0.53448
0.5
0.50985
0.46552
0.4803
0.4298
0.44458
0.40517
0.41995
0.39039
0.40517
0.38054
0.40025
0.37562
0.40025
0.37562
0.40517
0.38054
0.4101
0.38547
0.41502
0.39532
0.41502
0.39532
0.41502
0.39532
0.39039
0.4101
0.38054
0.4101
0.38054
0.4101
0.39532
0.37562
0.33498
0.34975
0.31527
0.34483
0.3399
0.39532
0.39039
0.41995
0.39532
0.41995
0.39532
0.42488
0.39039
0.4298
0.43473
0.24015
0.075123
-0.050493
-0.075123
0.1798
0.31034
0.4101
0.46059
0.45443
0.49015
0.47537
0.5
0.4803
0.50493
0.4803
0.50493
0.4803
0.50985
0.49015
0.51478
0.49015
0.52956
0.51478
0.55542
0.53941
0.56527
0.57512
0.55542
0.5702
0.53448
0.53941
0.49507
0.47537
0.44458
0.44951
0.4101
0.41995
0.39532
0.41502
0.39039
0.41995
0.39532
0.41995
0.40025
0.43473
0.41502
0.44458
0.41995
0.44458
0.42488
0.43966
0.42488
0.44458
0.4298
0.41995
0.44951
0.41502
0.43473
0.4101
0.43473
0.38054
0.39039
0.33498
0.34975
0.3399
0.40517
0.40025
0.4298
0.4101
0.44458
0.41995
0.43473
0.41995
0.41502
0.43473
0.40025
0.20443
0.099754
-0.019704
0.11946
0.27463
0.40025
0.46552
0.49015
0.50985
0.48522
0.51478
0.48522
0.50985
0.49015
0.50985
0.48522
0.50985
0.49015
0.51478
0.49015
0.5197
0.5
0.52956
0.51478
0.54557
0.52956
0.55542
0.56034
0.52463
0.54557
0.50493
0.5197
0.46552
0.4803
0.43966
0.45443
0.41995
0.43473
0.40517
0.42488
0.39532
0.41995
0.39532
0.41995
0.39532
0.41995
0.39532
0.41995
0.40025
0.41995
0.40517
0.42488
0.4298
0.40025
0.41995
0.39532
0.41995
0.39532
0.41995
0.39039
0.36946
0.34483
0.34975
0.3202
0.34483
0.36453
0.39532
0.39532
0.41995
0.4101
0.42488
0.4101
0.41995
0.39532
0.43473
0.43966
0.2303
0.075123
-0.050493
-0.055419
0.21059
0.34483
0.43473
0.47537
0.48522
0.49507
0.48522
0.5
0.48522
0.49507
0.48522
0.5
0.4803
0.5
0.49015
0.51478
0.5
0.52463
0.52956
0.54557
0.53941
0.56527
0.55542
0.56034
0.54557
0.52956
0.50985
0.49507
0.4803
0.46552
0.44951
0.43473
0.44458
0.41502
0.4298
0.41502
0.42488
0.41502
0.42488
0.4101
0.4298
0.41995
0.43966
0.42488
0.43966
0.41995
0.43966
0.4298
0.43473
0.41995
0.42488
0.4298
0.4101
0.43966
0.39532
0.40025
0.34975
0.3399
0.3202
0.35468
0.34975
0.40025
0.39039
0.41995
0.39532
0.41502
0.38547
0.41502
0.38054
0.42488
0.38054
0.23522
0.084975
-0.024631
-0.039409
0.22044
0.3399
0.4298
0.46059
0.47044
0.48522
0.46552
0.49015
0.46552
0.49015
0.47044
0.49015
0.46552
0.49015
0.47537
0.5
0.48522
0.51478
0.49015
0.52463
0.50985
0.54557
0.52463
0.53941
0.5197
0.50985
0.5197
0.48522
0.49015
0.46059
0.47044
0.4298
0.44458
0.41502
0.42488
0.40517
0.42488
0.40025
0.41995
0.39532
0.41995
0.40517
0.42488
0.40025
0.42488
0.40517
0.4298
0.41502
0.4298
0.41502
0.4101
0.4298
0.40517
0.42488
0.39532
0.43473
0.39039
0.39532
0.34975
0.35961
0.32512
0.36946
0.38054
0.41995
0.4101
0.44458
0.41502
0.43966
0.41502
0.43473
0.40517
0.44458
0.3202
0.16502
0.0098522
-0.055419
0.11453
0.27463
0.39039
0.47044
0.49507
0.48522
0.51478
0.49015
0.51478
0.49015
0.51478
0.5
0.5197
0.5
0.52463
0.5
0.53448
0.51478
0.54557
0.53448
0.5702
0.56527
0.58498
0.57512
0.56527
0.5702
0.53941
0.5197
0.50493
0.4803
0.45443
0.43966
0.41995
0.42488
0.40517
0.41995
0.40517
0.41995
0.41502
0.42488
0.41995
0.43473
0.41995
0.43966
0.41995
0.43473
0.42488
0.43966
0.42488
0.41995
0.42488
0.41995
0.42488
0.4101
0.42488
0.39532
0.37562
0.34975
0.34483
0.33005
0.36453
0.38054
0.40517
0.40025
0.42488
0.4101
0.4298
0.41502
0.4298
0.40517
0.44458
0.34483
0.17488
0.024631
-0.075123
0.080049
0.24015
0.36946
0.44951
0.48522
0.49015
0.5
0.49015
0.5
0.49015
0.50493
0.49507
0.50985
0.5
0.5197
0.50985
0.52956
0.51478
0.53941
0.54557
0.56527
0.56034
0.5702
0.56034
0.56034
0.53941
0.53448
0.51478
0.5
0.47044
0.44951
0.46552
0.42488
0.44458
0.41502
0.43473
0.4101
0.43473
0.41502
0.43966
0.41995
0.44458
0.4298
0.44458
0.42488
0.44458
0.41995
0.44458
0.41995
0.43966
0.42488
0.41995
0.4298
0.41995
0.39039
0.37562
0.35468
0.3399
0.3399
0.35468
0.39039
0.40025
0.41502
0.40517
0.41995
0.4101
0.42488
0.4101
0.41502
0.4298
0.37562
0.18966
0.070197
-0.060345
0.10468
0.26478
0.38547
0.44951
0.4803
0.49015
0.47537
0.49015
0.4803
0.49015
0.47537
0.48522
0.47044
0.4803
0.47044
0.49015
0.4803
0.49507
0.49015
0.51478
0.50985
0.53448
0.53448
0.53941
0.52463
0.52956
0.50985
0.5
0.4803
0.46552
0.44458
0.43966
0.4298
0.41995
0.42488
0.40025
0.41502
0.39532
0.40517
0.40025
0.41995
0.40025
0.4101
0.39532
0.41995
0.4101
0.41995
0.40517
0.41995
0.41502
0.41995
0.4101
0.41995
0.4101
0.40517
0.41995
0.4101
0.38547
0.36946
0.34975
0.33005
0.33498
0.34975
0.38054
0.39039
0.4101
0.4101
0.41995
0.40517
0.42488
0.40517
0.4101
0.41995
0.3399
0.14039
0.029557
-0.089901
0.080049
0.2303
0.36453
0.43473
0.47044
0.48522
0.4803
0.5
0.4803
0.49015
0.49015
0.5
0.49015
0.50493
0.49507
0.51478
0.50493
0.53448
0.52463
0.55049
0.54557
0.5702
0.56034
0.5702
0.55542
0.53941
0.51478
0.50985
0.48522
0.47044
0.44951
0.4298
0.43473
0.41502
0.41995
0.39532
0.41995
0.40517
0.42488
0.41502
0.4298
0.41995
0.42488
0.41502
0.4298
0.41995
0.42488
0.41995
0.42488
0.41502
0.41995
0.4101
0.40517
0.41995
0.39532
0.36453
0.34975
0.33005
0.3202
0.34483
0.36453
0.39532
0.40025
0.41995
0.40517
0.42488
0.41502
0.42488
0.40025
0.43966
0.36946
0.19951
0.050493
-0.070197
0.060345
0.24507
0.36946
0.45443
0.4803
0.49507
0.50493
0.49015
0.50493
0.49015
0.50493
0.49015
0.50985
0.49015
0.50985
0.5
0.5197
0.5197
0.53448
0.53448
0.56034
0.56034
0.58005
0.5702
0.57512
0.55542
0.55049
0.5197
0.50985
0.48522
0.47537
0.46059
0.45443
0.44458
0.43473
0.44458
0.42488
0.43473
0.41995
0.43966
0.42488
0.43966
0.43473
0.44458
0.43473
0.44458
0.43473
0.44458
0.43966
0.44951
0.43473
0.44951
0.4298
0.43966
0.44458
0.43966
0.40517
0.39039
0.36453
0.34975
0.35961
0.39039
0.41502
0.40517
0.41995
0.41995
0.43966
0.41995
0.43473
0.41502
0.43966
0.44458
0.30542
0.10961
-0.014778
-0.065271
0.1798
0.31034
0.4298
0.47044
0.49507
0.50493
0.49507
0.51478
0.49507
0.51478
0.5
0.5197
0.50493
0.52463
0.51478
0.52956
0.52956
0.55049
0.53448
0.56034
0.55542
0.58005
0.5702
0.58498
0.55542
0.55542
0.52956
0.52463
0.49507
0.48522
0.46059
0.45443
0.43473
0.42488
0.4298
0.41502
0.42488
0.41502
0.4298
0.41995
0.4298
0.41995
0.43473
0.4298
0.44458
0.4298
0.43966
0.42488
0.44458
0.41995
0.4298
0.41995
0.4298
0.39039
0.37562
0.34483
0.33498
0.3399
0.36946
0.39532
0.4101
0.41995
0.41502
0.42488
0.4101
0.42488
0.4101
0.41995
0.43966
0.34975
0.15025
0.024631
-0.084975
0.11946
0.26478
0.39532
0.44458
0.47537
0.4803
0.46552
0.48522
0.47044
0.4803
0.46552
0.47537
0.46552
0.48522
0.47044
0.4803
0.47044
0.49015
0.49015
0.51478
0.50985
0.53448
0.53448
0.53941
0.5197
0.5197
0.5
0.49015
0.46552
0.46552
0.43966
0.4298
0.41502
0.4101
0.41502
0.40025
0.40517
0.39039
0.39532
0.38547
0.40025
0.39039
0.40517
0.39532
0.4101
0.39532
0.41502
0.40517
0.41995
0.4101
0.41995
0.4101
0.4101
0.40517
0.41995
0.41502
0.39532
0.36453
0.35961
0.33498
0.32512
0.34975
0.38547
0.40025
0.4101
0.41995
0.4101
0.41995
0.41502
0.41995
0.40025
0.43966
0.31527
0.14039
-0.014778
-0.089901
0.089901
0.25985
0.38054
0.46552
0.48522
0.49015
0.5
0.49507
0.50985
0.49015
0.50493
0.49015
0.50985
0.49507
0.50985
0.50493
0.51478
0.51478
0.53448
0.54557
0.56034
0.56034
0.58498
0.56527
0.5702
0.53941
0.53448
0.50493
0.49015
0.45443
0.44458
0.41995
0.41502
0.40025
0.40517
0.39039
0.39532
0.40025
0.39039
0.4101
0.39532
0.4101
0.40517
0.41995
0.41502
0.42488
0.41502
0.42488
0.41502
0.41995
0.40517
0.4101
0.40025
0.41995
0.38054
0.36946
0.34483
0.33498
0.3399
0.36453
0.38547
0.4101
0.41995
0.42488
0.43966
0.41995
0.43473
0.42488
0.43473
0.44458
0.35468
0.16502
0.045567
-0.070197
0.12562
0.26478
0.40025
0.45443
0.49015
0.49507
0.49015
0.50493
0.50985
0.5
0.49507
0.50985
0.49015
0.51478
0.5
0.5197
0.50985
0.52463
0.5197
0.54557
0.53941
0.5702
0.56034
0.5702
0.55542
0.56034
0.5197
0.51478
0.47537
0.46552
0.42488
0.4298
0.39532
0.40025
0.38547
0.39039
0.37562
0.36946
0.39532
0.36946
0.39039
0.37562
0.39532
0.38054
0.39532
0.38054
0.39532
0.38054
0.39532
0.37562
0.38547
0.38054
0.39532
0.34975
0.34975
0.3202
0.31034
0.30049
0.33498
0.34975
0.38547
0.38054
0.39532
0.40025
0.38547
0.4101
0.39532
0.39532
0.41502
0.3202
0.12562
-0.0049261
-0.10961
0.089901
0.23522
0.37562
0.43473
0.48522
0.47044
0.48522
0.47044
0.49015
0.46552
0.48522
0.47537
0.49015
0.4803
0.49015
0.5
0.49015
0.51478
0.5
0.52463
0.5197
0.55542
0.54557
0.56034
0.53941
0.55049
0.51478
0.50985
0.47537
0.47044
0.43966
0.43966
0.41995
0.42488
0.40025
0.41502
0.39532
0.4101
0.41502
0.40025
0.41502
0.40025
0.41995
0.41502
0.42488
0.41995
0.43473
0.41995
0.4298
0.41995
0.42488
0.41502
0.43473
0.40517
0.39532
0.36453
0.35468
0.33005
0.34975
0.36453
0.40517
0.41502
0.4101
0.42488
0.41995
0.42488
0.41502
0.4298
0.44951
0.4101
0.2303
0.084975
-0.060345
-0.070197
0.1798
0.32512
0.41995
0.4803
0.48522
0.50493
0.49015
0.50493
0.49015
0.5
0.49015
0.5
0.49015
0.5
0.49015
0.50985
0.51478
0.50985
0.53448
0.55049
0.56034
0.55542
0.57512
0.56034
0.56527
0.52956
0.53448
0.49015
0.4803
0.44458
0.43966
0.41502
0.41502
0.39532
0.4101
0.39532
0.4101
0.40025
0.41995
0.4101
0.41995
0.42488
0.43473
0.43966
0.4298
0.44458
0.41995
0.43966
0.41995
0.4298
0.4101
0.41995
0.39532
0.37562
0.34975
0.34975
0.32512
0.34483
0.34975
0.39039
0.39532
0.41502
0.40517
0.41995
0.40517
0.4101
0.39039
0.38547
0.42488
0.25493
0.080049
-0.044335
-0.084975
0.14532
0.28941
0.39039
0.43966
0.44458
0.46552
0.44458
0.47044
0.46059
0.48522
0.46552
0.49015
0.47044
0.49015
0.47044
0.48522
0.47044
0.49507
0.49015
0.5197
0.52956
0.52463
0.53448
0.52956
0.53941
0.51478
0.5197
0.48522
0.47044
0.44951
0.43473
0.41502
0.41995
0.39532
0.41502
0.39532
0.41995
0.40517
0.42488
0.4101
0.4298
0.41995
0.43473
0.41995
0.42488
0.4101
0.41995
0.42488
0.41502
0.42488
0.4101
0.42488
0.38547
0.37562
0.35961
0.33005
0.31527
0.35961
0.37562
0.40517
0.39532
0.42488
0.4101
0.41502
0.40025
0.41995
0.40517
0.45443
0.34975
0.18473
0.045567
-0.039409
0.12562
0.28941
0.40025
0.46059
0.49507
0.5
0.49015
0.48522
0.5
0.46552
0.47044
0.45443
0.47044
0.46059
0.45443
0.44458
0.46552
0.44951
0.47537
0.4803
0.50493
0.49015
0.50985
0.51478
0.51478
0.5
0.51478
0.47537
0.44951
0.46059
0.44951
0.4298
0.41995
0.41502
0.42488
0.4298
0.40517
0.41995
0.40517
0.40025
0.39532
0.4101
0.38547
0.41502
0.41995
0.40517
0.39532
0.39532
0.39532
0.4101
0.39532
0.39532
0.39039
0.40025
0.39532
0.38054
0.36453
0.33005
0.30542
0.31034
0.31527
0.34975
0.38054
0.38054
0.40025
0.38547
0.39532
0.40517
0.41995
0.39039
0.38547
0.4101
0.2303
0.094828
-0.029557
-0.039409
0.21059
0.31034
0.40517
0.46059
0.4803
0.47044
0.46552
0.47537
0.4803
0.46059
0.45443
0.49015
0.4803
0.4803
0.47537
0.50493
0.50493
0.51478
0.51478
0.53941
0.53448
0.55049
0.56034
0.58005
0.58498
0.53941
0.50493
0.50985
0.49015
0.46552
0.43966
0.43473
0.41502
0.39532
0.43473
0.41995
0.40025
0.39532
0.41995
0.41502
0.42488
0.41995
0.41995
0.4298
0.4298
0.43473
0.41995
0.4298
0.43966
0.41995
0.42488
0.41502
0.40517
0.4101
0.35961
0.33498
0.33498
0.35961
0.37562
0.34975
0.27463
0.2303
0.21059
0.21059
0.24015
0.2303
0.21059
0.20443
0.28448
0.16502
0.0049261
-0.080049
-0.12931
0.060345
0.19951
0.32512
0.39532
0.4298
0.43966
0.43473
0.43966
0.47537
0.49015
0.44458
0.47044
0.48522
0.49015
0.50985
0.51478
0.50493
0.54557
0.55049
0.52956
0.57512
0.58498
0.58005
0.57512
0.57512
0.58498
0.55542
0.52956
0.52956
0.49507
0.46552
0.46059
0.46552
0.44458
0.45443
0.44458
0.44458
0.45443
0.44458
0.41995
0.44951
0.47537
0.47044
0.46059
0.46552
0.48522
0.5
0.46552
0.47044
0.4803
0.46552
0.47044
0.4803
0.44458
0.42488
0.39039
0.39532
0.4101
0.40517
0.42488
0.46059
0.47044
0.45443
0.44951
0.46059
0.45443
0.46059
0.46552
0.47537
0.37562
0.21552
0.099754
0.050493
0.23522
0.3399
0.43966
0.48522
0.5197
0.53448
0.51478
0.5197
0.51478
0.53448
0.53941
0.50985
0.52463
0.51478
0.49507
0.5197
0.53941
0.52956
0.52463
0.54557
0.56034
0.58005
0.57512
0.58498
0.56527
0.56034
0.55542
0.56034
0.5197
0.49507
0.5
0.49015
0.47537
0.46552
0.46059
0.44951
0.44458
0.44458
0.43966
0.43966
0.43473
0.44458
0.44951
0.45443
0.45443
0.44458
0.43966
0.4298
0.43966
0.44458
0.44458
0.44951
0.46059
0.4101
0.40025
0.40517
0.38547
0.34975
0.36946
0.4101
0.41995
0.44458
0.44951
0.44458
0.43473
0.4298
0.42488
0.4101
0.43966
0.44951
0.25493
0.10961
-0.060345
0.060345
0.24015
0.34975
0.43966
0.49015
0.5
0.48522
0.47537
0.49015
0.50493
0.51478
0.48522
0.47044
0.50493
0.49507
0.49015
0.49507
0.5
0.50493
0.49015
0.52463
0.53448
0.52956
0.56527
0.53941
0.53448
0.52463
0.50493
0.4803
0.45443
0.44951
0.45443
0.4101
0.40517
0.40517
0.4101
0.39532
0.39532
0.39532
0.4101
0.41502
0.39039
0.37562
0.39039
0.39532
0.39039
0.40517
0.39532
0.40517
0.41502
0.39532
0.38054
0.39039
0.39532
0.36946
0.35961
0.33498
0.30542
0.30049
0.34483
0.37562
0.38054
0.36946
0.40025
0.39532
0.39532
0.40517
0.39039
0.36946
0.39039
0.2697
0.14532
-0.029557
-0.099754
0.10961
0.25
0.38054
0.45443
0.46552
0.46059
0.47044
0.5
0.50985
0.49507
0.49015
0.4803
0.50985
0.52463
0.5
0.50493
0.5197
0.53941
0.53448
0.55049
0.5702
0.57512
0.56527
0.5899
0.57512
0.55049
0.53941
0.51478
0.49015
0.48522
0.46059
0.43966
0.41995
0.41502
0.42488
0.43473
0.41995
0.41995
0.40517
0.40025
0.4298
0.43473
0.41995
0.41502
0.41995
0.44951
0.46552
0.44458
0.41995
0.41995
0.4298
0.43966
0.4101
0.38547
0.39039
0.35961
0.34483
0.3399
0.39039
0.4101
0.40517
0.40025
0.4298
0.43473
0.41502
0.42488
0.43473
0.42488
0.43966
0.30049
0.15025
0.014778
-0.039409
0.16502
0.31034
0.40025
0.44951
0.47044
0.48522
0.49507
0.50985
0.53448
0.50985
0.49015
0.48522
0.50493
0.51478
0.51478
0.51478
0.53448
0.52956
0.54557
0.56034
0.5702
0.57512
0.5702
0.56034
0.56527
0.56034
0.55049
0.53448
0.50493
0.4803
0.47044
0.45443
0.44951
0.45443
0.43966
0.43966
0.44458
0.41995
0.42488
0.43966
0.43966
0.44458
0.44951
0.45443
0.44458
0.44951
0.44458
0.45443
0.46059
0.46552
0.44951
0.46059
0.42488
0.41502
0.40025
0.38054
0.36453
0.38547
0.4101
0.4298
0.44458
0.44458
0.44951
0.44458
0.44951
0.44458
0.44951
0.44458
0.45443
0.22537
0.089901
-0.039409
0.060345
0.2303
0.36453
0.43966
0.47537
0.49015
0.49507
0.5
0.49015
0.49507
0.48522
0.49015
0.48522
0.49015
0.48522
0.49015
0.50493
0.49507
0.5
0.5197
0.5197
0.53448
0.53448
0.55542
0.56034
0.53941
0.52463
0.50985
0.49015
0.4803
0.46552
0.44951
0.43966
0.4298
0.41995
0.41995
0.4101
0.4101
0.40025
0.39532
0.40025
0.39532
0.40517
0.41502
0.40025
0.39532
0.40517
0.4101
0.41995
0.41502
0.41502
0.41995
0.40517
0.40517
0.4101
0.39039
0.36453
0.3399
0.33005
0.33498
0.35961
0.38054
0.40025
0.40517
0.41502
0.41995
0.41502
0.41995
0.41502
0.40025
0.41995
0.32512
0.14039
0.014778
-0.070197
0.099754
0.23522
0.36453
0.43473
0.46552
0.46552
0.4803
0.49015
0.49015
0.49015
0.48522
0.49015
0.49015
0.49015
0.49507
0.5
0.50985
0.50985
0.5197
0.53448
0.53941
0.55049
0.56034
0.56034
0.55049
0.53448
0.50985
0.5
0.49015
0.47044
0.45443
0.43966
0.41995
0.41502
0.40517
0.40517
0.4101
0.4101
0.4101
0.41995
0.41502
0.4101
0.41502
0.41995
0.4298
0.41995
0.42488
0.41995
0.41995
0.4101
0.41502
0.41995
0.40025
0.36946
0.35468
0.34483
0.32512
0.33498
0.36453
0.39039
0.40517
0.4101
0.4101
0.4101
0.4101
0.41995
0.40517
0.41995
0.4298
0.24507
0.10468
-0.044335
-0.089901
0.18966
0.31527
0.42488
0.47044
0.49015
0.49015
0.49015
0.49015
0.49015
0.49507
0.49015
0.49015
0.49015
0.51478
0.50493
0.49015
0.50493
0.5
0.50985
0.52956
0.53448
0.55049
0.55542
0.55049
0.53448
0.52956
0.50493
0.49015
0.47537
0.46552
0.42488
0.41502
0.42488
0.41995
0.4101
0.4101
0.40517
0.4101
0.4101
0.4101
0.40517
0.4101
0.41502
0.42488
0.43473
0.42488
0.44458
0.43473
0.41995
0.41995
0.42488
0.4298
0.41502
0.39039
0.36946
0.35468
0.35961
0.34483
0.35961
0.40025
0.41995
0.4101
0.40025
0.4101
0.41995
0.41995
0.41995
0.4298
0.44458
0.30542
0.15025
0.019704
-0.039409
0.13547
0.2697
0.38547
0.44458
0.46552
0.50493
0.49015
0.5
0.51478
0.4803
0.49015
0.49015
0.50493
0.51478
0.48522
0.49507
0.49015
0.50493
0.5197
0.52956
0.53448
0.56034
0.5702
0.55049
0.53941
0.53941
0.54557
0.5
0.49507
0.47537
0.46552
0.44951
0.40517
0.41995
0.4101
0.40517
0.40517
0.4101
0.40517
0.4101
0.39532
0.4101
0.40025
0.44458
0.41995
0.41502
0.4298
0.44458
0.44951
0.41995
0.43966
0.4101
0.38547
0.38054
0.36946
0.37562
0.3399
0.33498
0.40517
0.41502
0.40517
0.43966
0.44458
0.42488
0.41502
0.43473
0.44458
0.43966
0.45443
0.28448
0.14532
0.0098522
-0.019704
0.24507
0.36946
0.43966
0.47044
0.49015
0.48522
0.48522
0.49507
0.4803
0.49015
0.5
0.49015
0.47044
0.47044
0.48522
0.5
0.51478
0.51478
0.51478
0.5197
0.53448
0.52463
0.5197
0.53448
0.52956
0.52463
0.5197
0.53448
0.49507
0.45443
0.4298
0.4298
0.43473
0.42488
0.43966
0.44458
0.39532
0.40517
0.39532
0.38547
0.39532
0.42488
0.41502
0.4101
0.4101
0.40025
0.40517
0.41995
0.4298
0.43473
0.39532
0.39532
0.36946
0.36946
0.37562
0.34483
0.32512
0.35468
0.39532
0.4101
0.42488
0.42488
0.41995
0.4298
0.43473
0.4101
0.41502
0.4298
0.40517
0.25
0.14039
0
-0.024631
0.25
0.37562
0.43966
0.47537
0.4803
0.49015
0.49015
0.5
0.51478
0.5197
0.49015
0.48522
0.49507
0.5197
0.49507
0.49015
0.5
0.51478
0.53448
0.54557
0.53941
0.56034
0.53941
0.53941
0.55049
0.52956
0.50985
0.5
0.49507
0.47537
0.42488
0.41995
0.44458
0.40517
0.39532
0.40517
0.39532
0.40025
0.41502
0.40025
0.4101
0.41995
0.42488
0.40025
0.39039
0.4101
0.41995
0.41502
0.41995
0.41502
0.4298
0.4101
0.36946
0.36946
0.35468
0.34975
0.3399
0.34483
0.36946
0.39532
0.39532
0.41502
0.40517
0.41502
0.40517
0.39532
0.40517
0.4298
0.33498
0.17488
0.055419
-0.055419
0.094828
0.24507
0.37562
0.44951
0.47044
0.4803
0.49015
0.49015
0.48522
0.4803
0.47537
0.49015
0.49507
0.49015
0.5
0.50493
0.49015
0.48522
0.5197
0.51478
0.53448
0.54557
0.53448
0.54557
0.53448
0.53448
0.50985
0.47537
0.4803
0.49015
0.42488
0.41995
0.4298
0.41502
0.37562
0.36946
0.38547
0.40517
0.41995
0.42488
0.39532
0.40517
0.39532
0.40517
0.41995
0.40025
0.4101
0.4298
0.43966
0.39532
0.40025
0.41502
0.39532
0.37562
0.34975
0.34483
0.34975
0.3399
0.36453
0.40025
0.41995
0.41502
0.41995
0.40517
0.4101
0.41995
0.42488
0.43473
0.36946
0.1798
0.065271
-0.044335
0.060345
0.22537
0.36946
0.42488
0.45443
0.47537
0.47537
0.47044
0.47537
0.49015
0.48522
0.49015
0.4803
0.49015
0.48522
0.4803
0.49015
0.49507
0.49015
0.5197
0.53448
0.57512
0.58498
0.55542
0.53448
0.52956
0.5197
0.51478
0.52463
0.49507
0.45443
0.4298
0.42488
0.4298
0.43966
0.44951
0.41995
0.38547
0.39532
0.41502
0.43473
0.43966
0.4298
0.42488
0.43473
0.43966
0.44458
0.46059
0.45443
0.4298
0.41995
0.42488
0.43966
0.4298
0.4101
0.35961
0.3399
0.34975
0.36946
0.39532
0.41995
0.43473
0.43966
0.41995
0.4298
0.4298
0.46059
0.43966
0.43966
0.36453
0.18966
0.075123
-0.019704
0.13547
0.27956
0.38547
0.45443
0.49015
0.49015
0.49015
0.51478
0.50493
0.49507
0.49015
0.49507
0.51478
0.50493
0.5
0.50493
0.51478
0.52463
0.53941
0.53448
0.53941
0.56034
0.58005
0.56527
0.55542
0.53448
0.53448
0.5197
0.49507
0.4803
0.46552
0.44458
0.43473
0.42488
0.43473
0.41995
0.39532
0.40025
0.40517
0.41502
0.42488
0.41995
0.41995
0.42488
0.42488
0.43473
0.41995
0.4298
0.4298
0.41995
0.41502
0.4298
0.41502
0.39039
0.36946
0.34975
0.34975
0.35468
0.38054
0.41502
0.41995
0.41995
0.41995
0.41995
0.41995
0.43473
0.41995
0.4101
0.43966
0.30049
0.15025
0.024631
-0.029557
0.19458
0.32512
0.42488
0.46552
0.48522
0.49015
0.49015
0.50493
0.49507
0.49015
0.49015
0.49507
0.5
0.49015
0.49015
0.49015
0.49507
0.50985
0.52463
0.52956
0.52463
0.54557
0.55542
0.53941
0.53448
0.53448
0.52463
0.50985
0.49015
0.47537
0.46552
0.44458
0.43966
0.42488
0.41995
0.41995
0.41995
0.41995
0.41995
0.41995
0.41995
0.41995
0.4298
0.43473
0.43966
0.44458
0.43473
0.43966
0.43966
0.43966
0.43473
0.43966
0.40517
0.39039
0.35961
0.34975
0.34975
0.37562
0.4101
0.42488
0.4298
0.41995
0.41995
0.41995
0.4298
0.42488
0.41995
0.45443
0.31527
0.15025
0.0098522
-0.044335
0.1798
0.31527
0.41995
0.46059
0.48522
0.48522
0.49015
0.47537
0.48522
0.48522
0.49015
0.49015
0.49015
0.48522
0.48522
0.4803
0.5
0.51478
0.51478
0.51478
0.52956
0.54557
0.55542
0.56034
0.53448
0.5197
0.51478
0.50493
0.48522
0.47537
0.46059
0.44458
0.4298
0.4298
0.41995
0.41995
0.41995
0.41995
0.4101
0.41502
0.41995
0.41995
0.42488
0.4298
0.43473
0.43966
0.44458
0.42488
0.42488
0.42488
0.4298
0.41995
0.4298
0.42488
0.39532
0.37562
0.36453
0.34483
0.34483
0.36453
0.40025
0.41502
0.42488
0.42488
0.42488
0.41995
0.41995
0.4101
0.40517
0.44458
0.27463
0.11946
-0.014778
-0.060345
0.16995
0.30542
0.41995
0.47044
0.5
0.50493
0.5
0.50493
0.5
0.50493
0.50493
0.50985
0.51478
0.50985
0.51478
0.5197
0.52463
0.52956
0.53448
0.55542
0.56034
0.56527
0.57512
0.56527
0.56034
0.55049
0.52956
0.51478
0.49507
0.49015
0.46552
0.43966
0.43473
0.4298
0.43966
0.4298
0.41995
0.4101
0.41502
0.41502
0.42488
0.42488
0.43966
0.44458
0.4298
0.41995
0.41995
0.41995
0.4298
0.42488
0.41995
0.4298
0.41502
0.39532
0.37562
0.34975
0.34483
0.36453
0.39039
0.41995
0.41995
0.41995
0.42488
0.43966
0.43473
0.42488
0.41502
0.43966
0.39039
0.20443
0.075123
-0.050493
0.060345
0.22537
0.35961
0.44458
0.48522
0.49015
0.51478
0.5
0.49507
0.49507
0.49015
0.49015
0.5
0.5
0.5
0.49507
0.5
0.51478
0.5197
0.53448
0.54557
0.56034
0.5702
0.56034
0.55542
0.53941
0.52956
0.5197
0.49507
0.4803
0.46552
0.44458
0.43966
0.4298
0.42488
0.41995
0.41995
0.41995
0.4101
0.41995
0.41995
0.42488
0.4298
0.43473
0.4298
0.43966
0.44458
0.44458
0.44458
0.4298
0.41995
0.41995
0.43473
0.41995
0.40025
0.39039
0.36946
0.35468
0.36946
0.40025
0.41995
0.4298
0.43473
0.4298
0.43473
0.44458
0.43966
0.42488
0.45443
0.46059
0.25493
0.10468
-0.029557
-0.055419
0.21552
0.34975
0.44458
0.49015
0.51478
0.5197
0.51478
0.50493
0.50493
0.50985
0.51478
0.51478
0.52463
0.52956
0.52956
0.52956
0.52956
0.53448
0.55542
0.56527
0.58005
0.5899
0.60468
0.59483
0.58498
0.58005
0.56034
0.54557
0.51478
0.5
0.48522
0.46552
0.44458
0.44458
0.43966
0.43473
0.43473
0.43473
0.43966
0.4298
0.46059
0.46552
0.45443
0.44458
0.45443
0.44951
0.44458
0.46552
0.46059
0.45443
0.44458
0.44951
0.44458
0.41995
0.40025
0.38054
0.37562
0.39039
0.40517
0.42488
0.44458
0.45443
0.44458
0.44458
0.45443
0.43473
0.43966
0.43473
0.46552
0.32512
0.14039
0.014778
-0.044335
0.15517
0.28941
0.40517
0.47537
0.5
0.49015
0.49507
0.49015
0.51478
0.49015
0.5
0.49015
0.49507
0.50493
0.5
0.49015
0.50493
0.52463
0.53448
0.52463
0.53941
0.53448
0.54557
0.53941
0.55542
0.51478
0.5197
0.48522
0.46059
0.4298
0.41995
0.4101
0.39039
0.36946
0.35961
0.36946
0.35468
0.38054
0.34483
0.3399
0.35468
0.37562
0.39532
0.37562
0.36453
0.38054
0.36453
0.39532
0.35961
0.40517
0.39039
0.35961
0.38054
0.35961
0.31034
0.28448
0.30049
0.27463
0.28941
0.30542
0.3399
0.31034
0.32512
0.3202
0.39039
0.33498
0.36946
0.37562
0.33498
0.38547
0.21552
0.0098522
-0.094828
-0.12931
0.050493
0.24015
0.3399
0.37562
0.36453
0.43966
0.41502
0.41995
0.39039
0.4101
0.40025
0.43473
0.4101
0.40517
0.38054
0.41995
0.42488
0.41995
0.42488
0.45443
0.44458
0.4803
0.49507
0.47044
0.46059
0.4803
0.4298
0.43966
0.41502
0.40025
0.38547
0.35961
0.34975
0.35961
0.33498
0.34483
0.3399
0.35468
0.36946
0.39532
0.40025
0.37562
0.39039
0.41502
0.4101
0.40025
0.40517
0.40025
0.42488
0.41995
0.4101
0.4298
0.4101
0.40517
0.40025
0.43473
0.39532
0.36946
0.35468
0.37562
0.36453
0.40025
0.39532
0.42488
0.4298
0.44458
0.44458
0.43473
0.44951
0.43473
0.46552
0.48522
0.26478
0.084975
-0.075123
-0.10961
0.18966
0.33498
0.44951
0.48522
0.5197
0.53448
0.51478
0.50493
0.52463
0.5
0.51478
0.50985
0.52463
0.49015
0.52463
0.51478
0.52956
0.53941
0.55049
0.53941
0.56527
0.56034
0.58005
0.5899
0.5702
0.55049
0.53941
0.5197
0.48522
0.46059
0.44951
0.45443
0.43473
0.43966
0.41995
0.4298
0.4101
0.4298
0.42488
0.44458
0.42488
0.43966
0.46059
0.47044
0.45443
0.46552
0.44458
0.44951
0.44458
0.44458
0.4298
0.44458
0.43473
0.42488
0.41502
0.40517
0.41502
0.39532
0.35961
0.34483
0.34975
0.33005
0.36946
0.40517
0.39532
0.38054
0.41995
0.39532
0.41995
0.39532
0.40025
0.42488
0.43966
0.27956
0.094828
-0.050493
-0.10961
0.10468
0.25985
0.38054
0.46059
0.49015
0.5
0.47537
0.46552
0.47044
0.4803
0.48522
0.47537
0.49015
0.4803
0.49015
0.47537
0.51478
0.50493
0.51478
0.50493
0.54557
0.55049
0.54557
0.55049
0.56034
0.56527
0.5197
0.48522
0.4803
0.46059
0.44458
0.42488
0.4101
0.41502
0.39532
0.40025
0.39532
0.41502
0.40517
0.41995
0.4101
0.43966
0.4298
0.44458
0.44458
0.44951
0.42488
0.43966
0.43473
0.44458
0.42488
0.41995
0.43966
0.43473
0.41995
0.41502
0.42488
0.41995
0.4101
0.39532
0.38547
0.36946
0.36946
0.37562
0.40517
0.40025
0.43473
0.4298
0.44458
0.43966
0.43473
0.42488
0.43473
0.4803
0.35468
0.15025
0.014778
-0.070197
0.11946
0.26478
0.39532
0.4803
0.49015
0.50493
0.49507
0.49507
0.5
0.50985
0.48522
0.49015
0.48522
0.49015
0.49015
0.50493
0.49507
0.5
0.52463
0.54557
0.5197
0.53941
0.53448
0.56527
0.55049
0.53448
0.49507
0.47537
0.49015
0.44458
0.4298
0.40517
0.38547
0.37562
0.39039
0.35468
0.34483
0.38054
0.36946
0.36946
0.36453
0.36946
0.36453
0.41502
0.36946
0.37562
0.41502
0.38547
0.40517
0.35961
0.34975
0.36453
0.3202
0.26478
0.36946
0.3202
0.35468
0.29557
0.38054
0.38547
0.28941
0.27956
0.30542
0.3202
0.32512
0.2697
0.33498
0.35468
0.3399
0.35961
0.37562
0.34483
0.34975
0.36453
0.40025
0.44458
0.20443
0.075123
-0.10961
-0.12931
0.12562
0.2697
0.40025
0.4298
0.41995
0.44951
0.38054
0.4298
0.47537
0.40517
0.44951
0.46552
0.43966
0.46552
0.44951
0.41502
0.46552
0.46059
0.5
0.51478
0.49507
0.50985
0.50985
0.52956
0.49015
0.51478
0.49507
0.50985
0.47044
0.45443
0.38547
0.35468
0.4101
0.37562
0.36946
0.39039
0.34483
0.36453
0.37562
0.40025
0.39039
0.43966
0.44951
0.46059
0.42488
0.41502
0.40517
0.43473
0.41995
0.41995
0.42488
0.41995
0.44458
0.41995
0.4298
0.42488
0.44951
0.43473
0.43966
0.43473
0.43966
0.42488
0.4101
0.38547
0.40025
0.41502
0.44951
0.45443
0.46552
0.44951
0.45443
0.46552
0.45443
0.4803
0.46059
0.51478
0.37562
0.18966
0.04064
-0.0049261
0.22044
0.35961
0.44951
0.53448
0.55049
0.56527
0.55542
0.56034
0.56527
0.56034
0.53941
0.55542
0.54557
0.56034
0.56527
0.56034
0.56034
0.57512
0.58498
0.58498
0.59483
0.61453
0.63054
0.63054
0.64532
0.5899
0.57512
0.55049
0.54557
0.53448
0.5
0.4803
0.47537
0.46552
0.44951
0.45443
0.47044
0.45443
0.46059
0.46552
0.49015
0.46552
0.47537
0.4803
0.4803
0.46059
0.45443
0.47044
0.46552
0.45443
0.44458
0.47044
0.4803
0.44951
0.41995
0.43473
0.43966
0.44458
0.43473
0.44458
0.40025
0.39532
0.38054
0.39532
0.37562
0.40025
0.41502
0.43966
0.44458
0.4298
0.42488
0.43966
0.43473
0.41995
0.41502
0.44458
0.30049
0.13054
-0.0098522
-0.044335
0.19458
0.33498
0.42488
0.46552
0.50493
0.46552
0.47044
0.47537
0.49015
0.46059
0.48522
0.47044
0.49507
0.50493
0.47537
0.44951
0.48522
0.47537
0.5
0.52956
0.53448
0.51478
0.5197
0.52463
0.51478
0.53448
0.5197
0.49507
0.44458
0.45443
0.41995
0.41995
0.4101
0.38547
0.38054
0.37562
0.36946
0.40025
0.38547
0.36946
0.37562
0.36453
0.40025
0.41995
0.4298
0.40025
0.38054
0.38054
0.40025
0.39532
0.42488
0.43473
0.40517
0.38054
0.39039
0.39532
0.40025
0.39532
0.39532
0.38054
0.36946
0.35468
0.36946
0.33498
0.35468
0.37562
0.36453
0.38547
0.4101
0.39532
0.40025
0.39532
0.39039
0.40025
0.38054
0.43473
0.28448
0.11946
-0.0098522
-0.060345
0.15517
0.28941
0.39039
0.43473
0.44458
0.44458
0.46059
0.47537
0.46552
0.44951
0.45443
0.46059
0.44458
0.47044
0.49015
0.47537
0.46552
0.46059
0.5
0.49015
0.5197
0.51478
0.52956
0.5197
0.53448
0.5
0.49015
0.4803
0.47044
0.46552
0.43966
0.41995
0.40517
0.38054
0.41502
0.38547
0.38054
0.38547
0.39532
0.39039
0.41995
0.41995
0.4101
0.41502
0.40025
0.43966
0.43966
0.4298
0.41995
0.4101
0.41502
0.4298
0.43473
0.43966
0.40517
0.41995
0.40517
0.4298
0.43473
0.40517
0.39039
0.37562
0.36946
0.37562
0.39532
0.41502
0.41995
0.41502
0.41995
0.41995
0.41995
0.41995
0.43473
0.41995
0.45443
0.33498
0.1798
0.065271
0.014778
0.1601
0.30049
0.40517
0.47537
0.5
0.51478
0.50493
0.50985
0.51478
0.50985
0.51478
0.51478
0.5197
0.52956
0.5197
0.51478
0.53448
0.53448
0.55049
0.56034
0.58005
0.58005
0.59483
0.58498
0.5899
0.5702
0.56034
0.53941
0.5197
0.49015
0.4803
0.46552
0.46059
0.4298
0.42488
0.42488
0.4298
0.4101
0.4298
0.43473
0.4101
0.43473
0.41995
0.43473
0.43966
0.43473
0.41995
0.4298
0.41502
0.4101
0.41995
0.41995
0.40517
0.4101
0.39532
0.40025
0.39039
0.40025
0.39039
0.36453
0.34483
0.34975
0.33498
0.35961
0.37562
0.39039
0.39532
0.39039
0.38054
0.37562
0.4101
0.38054
0.37562
0.4101
0.41502
0.17488
0.075123
-0.034483
0.075123
0.22537
0.34975
0.41502
0.44951
0.45443
0.46552
0.44951
0.46552
0.45443
0.44458
0.46552
0.45443
0.46552
0.46059
0.46552
0.47537
0.4803
0.47537
0.49507
0.50493
0.5197
0.52956
0.53941
0.52956
0.52463
0.51478
0.51478
0.4803
0.47044
0.47537
0.44458
0.42488
0.41995
0.41995
0.4101
0.40025
0.40517
0.4101
0.40025
0.41502
0.4101
0.41995
0.41995
0.4298
0.41995
0.43473
0.42488
0.43473
0.4298
0.44458
0.44458
0.44951
0.43473
0.43473
0.43966
0.44458
0.43473
0.42488
0.43966
0.41995
0.39532
0.39532
0.39532
0.39039
0.4101
0.42488
0.44458
0.44458
0.44458
0.44458
0.44951
0.44458
0.44458
0.43473
0.47537
0.39039
0.22044
0.10468
0.024631
0.16502
0.30049
0.40517
0.47044
0.49015
0.50493
0.51478
0.50493
0.51478
0.50985
0.51478
0.5
0.50493
0.49015
0.50985
0.50493
0.50985
0.51478
0.52956
0.52956
0.53941
0.55049
0.56034
0.56034
0.56527
0.55049
0.53448
0.52463
0.50985
0.51478
0.46552
0.47044
0.4298
0.45443
0.41502
0.42488
0.40025
0.42488
0.40517
0.41995
0.40025
0.42488
0.4101
0.43966
0.41995
0.44458
0.4101
0.42488
0.41995
0.43473
0.41502
0.40517
0.4298
0.41995
0.43473
0.39532
0.41502
0.39532
0.43473
0.38547
0.36946
0.36946
0.36453
0.35468
0.38054
0.39532
0.41995
0.4101
0.41995
0.41995
0.41995
0.4101
0.41502
0.4101
0.44458
0.30049
0.15517
0.045567
-0.0049261
0.20443
0.31034
0.4101
0.47044
0.49015
0.4803
0.47537
0.4803
0.49015
0.48522
0.49015
0.49015
0.49507
0.49015
0.5
0.49015
0.5
0.49507
0.51478
0.51478
0.52956
0.53448
0.55049
0.53448
0.53941
0.52463
0.51478
0.5
0.49015
0.47044
0.45443
0.43473
0.41995
0.42488
0.4101
0.41995
0.40517
0.39532
0.39532
0.40025
0.39532
0.41995
0.40517
0.41502
0.41995
0.42488
0.41995
0.43473
0.41995
0.42488
0.4298
0.4298
0.42488
0.4298
0.41995
0.41995
0.4298
0.42488
0.40025
0.37562
0.38054
0.36946
0.38547
0.39532
0.41995
0.42488
0.44458
0.43966
0.44458
0.43473
0.43966
0.42488
0.43473
0.45443
0.34483
0.18473
0.084975
0.029557
0.21059
0.3202
0.41502
0.46552
0.4803
0.49015
0.48522
0.49015
0.48522
0.49015
0.48522
0.48522
0.4803
0.48522
0.47537
0.48522
0.48522
0.49507
0.49015
0.50493
0.50985
0.52956
0.53448
0.53448
0.53941
0.52956
0.51478
0.5
0.4803
0.46552
0.44951
0.4298
0.41995
0.41502
0.40517
0.39532
0.40517
0.39039
0.39039
0.38547
0.38547
0.38054
0.39039
0.38547
0.39039
0.38054
0.39039
0.39039
0.39532
0.39532
0.39039
0.38547
0.39039
0.39039
0.39039
0.38547
0.39039
0.39532
0.38547
0.39532
0.37562
0.36946
0.34483
0.32512
0.3202
0.33498
0.35961
0.39039
0.40025
0.4101
0.40025
0.40517
0.40025
0.40517
0.39532
0.42488
0.4298
0.21552
0.084975
-0.029557
-0.039409
0.20443
0.3399
0.4298
0.4803
0.47537
0.49507
0.4803
0.49507
0.48522
0.50493
0.48522
0.5
0.48522
0.4803
0.5
0.49015
0.51478
0.50493
0.52956
0.5197
0.55049
0.54557
0.56527
0.55542
0.56034
0.52956
0.53941
0.49507
0.49015
0.45443
0.46059
0.42488
0.42488
0.41502
0.41995
0.39532
0.39532
0.39532
0.40517
0.39532
0.40517
0.40517
0.41995
0.41995
0.41995
0.42488
0.41995
0.42488
0.42488
0.4298
0.4298
0.41502
0.4101
0.41995
0.41502
0.42488
0.41995
0.42488
0.39039
0.38054
0.34975
0.34975
0.34975
0.38547
0.40025
0.41995
0.42488
0.42488
0.41995
0.4298
0.43473
0.41502
0.4298
0.44458
0.25
0.10961
-0.019704
-0.039409
0.21552
0.3399
0.43966
0.48522
0.5
0.49507
0.5
0.49507
0.50985
0.51478
0.51478
0.5
0.50493
0.50493
0.51478
0.52463
0.52956
0.52956
0.53448
0.55049
0.56527
0.57512
0.5702
0.58005
0.56034
0.56034
0.53448
0.52463
0.49507
0.47537
0.46059
0.45443
0.44458
0.43473
0.4298
0.43966
0.42488
0.43473
0.4298
0.44458
0.44951
0.44458
0.43966
0.4298
0.44458
0.45443
0.46552
0.44458
0.43473
0.4298
0.43966
0.43473
0.43966
0.4298
0.43966
0.42488
0.4101
0.37562
0.36946
0.34975
0.35468
0.36946
0.4101
0.42488
0.43473
0.4298
0.43473
0.43473
0.44458
0.4298
0.42488
0.45443
0.38054
0.19951
0.089901
-0.0049261
0.15025
0.29557
0.40025
0.46552
0.48522
0.49015
0.48522
0.49507
0.48522
0.4803
0.47044
0.47044
0.47044
0.47537
0.47044
0.47537
0.47044
0.49015
0.4803
0.49015
0.48522
0.49015
0.5
0.51478
0.50985
0.50493
0.49015
0.47044
0.46059
0.44951
0.43473
0.41502
0.4101
0.39532
0.39532
0.39532
0.39532
0.38547
0.38547
0.38547
0.39532
0.39532
0.39532
0.40025
0.39532
0.40025
0.39532
0.39532
0.40025
0.41502
0.40025
0.40517
0.40025
0.40025
0.40025
0.41502
0.4101
0.42488
0.4298
0.40025
0.36946
0.36453
0.3399
0.35961
0.37562
0.40517
0.41995
0.41502
0.43966
0.41995
0.43966
0.42488
0.43473
0.40517
0.44458
0.31034
0.1601
0.0098522
-0.034483
0.13547
0.28448
0.38054
0.46552
0.48522
0.5
0.48522
0.50985
0.49015
0.5
0.48522
0.49507
0.5
0.51478
0.49507
0.50493
0.50493
0.5197
0.53448
0.53448
0.55049
0.56034
0.56527
0.56034
0.5702
0.55049
0.55542
0.50985
0.49015
0.47044
0.46059
0.43966
0.41995
0.4101
0.41995
0.39532
0.39532
0.39532
0.39039
0.39532
0.40517
0.4101
0.41502
0.42488
0.42488
0.4101
0.41502
0.41995
0.4101
0.41995
0.41995
0.41502
0.4101
0.40025
0.40025
0.41502
0.38547
0.36453
0.34975
0.34483
0.32512
0.3399
0.34975
0.39039
0.4101
0.41502
0.40517
0.40517
0.41502
0.41995
0.41502
0.4101
0.43473
0.27956
0.11453
-0.0098522
-0.065271
0.12562
0.27463
0.39532
0.46059
0.4803
0.49015
0.49507
0.49015
0.48522
0.5
0.49015
0.49507
0.5
0.49015
0.50493
0.50493
0.50985
0.5197
0.52956
0.53448
0.55049
0.56034
0.5702
0.56527
0.55542
0.53448
0.52463
0.5
0.48522
0.46552
0.44951
0.4298
0.4298
0.40025
0.39532
0.40025
0.41995
0.4101
0.40517
0.4101
0.41995
0.41995
0.41995
0.42488
0.4298
0.43473
0.4298
0.4298
0.41995
0.42488
0.41995
0.41995
0.41502
0.41995
0.41995
0.40025
0.37562
0.36946
0.34483
0.33498
0.34975
0.39039
0.4101
0.40517
0.4101
0.41995
0.42488
0.41995
0.41995
0.4101
0.43473
0.44458
0.25493
0.11453
0
-0.024631
0.2303
0.3399
0.42488
0.46059
0.47537
0.47537
0.49015
0.47044
0.4803
0.47537
0.4803
0.47537
0.47044
0.49015
0.47537
0.4803
0.48522
0.4803
0.47537
0.5
0.51478
0.52463
0.52463
0.52956
0.5197
0.52463
0.50985
0.48522
0.46552
0.44951
0.4298
0.42488
0.41502
0.4101
0.4101
0.41502
0.39532
0.39532
0.39532
0.39532
0.39039
0.39532
0.40517
0.38054
0.39532
0.38054
0.40025
0.39532
0.41502
0.39532
0.4101
0.39039
0.40517
0.38547
0.4101
0.39532
0.41502
0.40517
0.39532
0.35961
0.35468
0.32512
0.33005
0.34483
0.37562
0.39532
0.40517
0.41502
0.39532
0.39532
0.4101
0.41502
0.39532
0.42488
0.34483
0.1601
0.034483
-0.070197
0.084975
0.24015
0.38054
0.46059
0.48522
0.49015
0.49015
0.49507
0.49015
0.49015
0.49507
0.48522
0.49507
0.49507
0.5
0.49507
0.50985
0.50493
0.52463
0.5197
0.54557
0.56034
0.5702
0.5702
0.56527
0.55049
0.53448
0.50985
0.49015
0.46059
0.44458
0.42488
0.41995
0.39532
0.39532
0.39039
0.39532
0.39039
0.39532
0.40025
0.39532
0.40025
0.39532
0.41502
0.41502
0.41995
0.41995
0.41995
0.41995
0.41502
0.40517
0.4101
0.40025
0.4101
0.39532
0.40025
0.40025
0.38547
0.36453
0.34975
0.32512
0.32512
0.33498
0.36946
0.39039
0.40025
0.40025
0.40517
0.40025
0.40517
0.4101
0.39532
0.4298
0.36453
0.16995
0.034483
-0.099754
0.014778
0.19951
0.3399
0.44458
0.47537
0.5
0.49507
0.49015
0.49015
0.49507
0.5
0.49015
0.50493
0.49507
0.50493
0.50985
0.51478
0.5197
0.52956
0.53941
0.55542
0.56034
0.58005
0.57512
0.58005
0.56034
0.55049
0.5197
0.50493
0.47537
0.45443
0.4298
0.41995
0.40517
0.4101
0.39532
0.40025
0.40025
0.4101
0.41502
0.41995
0.41995
0.41995
0.42488
0.4298
0.42488
0.41995
0.4298
0.42488
0.43473
0.41995
0.41995
0.41502
0.41995
0.4101
0.41995
0.41995
0.4101
0.38054
0.36453
0.34975
0.34483
0.34975
0.39039
0.4101
0.42488
0.43473
0.4298
0.43966
0.4298
0.43473
0.41995
0.44458
0.45443
0.25493
0.10468
-0.029557
-0.075123
0.21059
0.3399
0.43473
0.47044
0.49015
0.48522
0.49015
0.49015
0.49015
0.49015
0.49015
0.49015
0.49015
0.49015
0.49015
0.5
0.49507
0.50493
0.50985
0.52463
0.5197
0.55049
0.53448
0.56034
0.53448
0.53941
0.5
0.50493
0.46059
0.46552
0.43473
0.42488
0.4298
0.4101
0.41502
0.38547
0.4101
0.38547
0.4101
0.39039
0.4101
0.39532
0.41502
0.40025
0.42488
0.41995
0.42488
0.41995
0.43966
0.4298
0.43473
0.4298
0.41995
0.41995
0.4298
0.42488
0.43473
0.4298
0.41502
0.39039
0.36946
0.35468
0.34975
0.36946
0.39532
0.41995
0.41995
0.4298
0.42488
0.43473
0.4298
0.43473
0.41995
0.45443
0.4101
0.2303
0.084975
-0.019704
0.080049
0.26478
0.39532
0.47537
0.49507
0.50985
0.50493
0.51478
0.50985
0.51478
0.50985
0.50493
0.51478
0.5
0.5
0.5
0.50985
0.50493
0.51478
0.5197
0.52956
0.53448
0.55542
0.56034
0.56034
0.55542
0.53448
0.50985
0.5
0.48522
0.46552
0.44458
0.44458
0.42488
0.42488
0.41502
0.4101
0.39532
0.39532
0.39039
0.39532
0.38547
0.39039
0.39532
0.39532
0.40025
0.39532
0.39532
0.37562
0.39532
0.38054
0.39039
0.39532
0.38547
0.36946
0.36453
0.36946
0.37562
0.37562
0.36946
0.38054
0.36453
0.33005
0.30542
0.28941
0.27956
0.3202
0.32512
0.3399
0.35468
0.37562
0.36946
0.38547
0.35468
0.36453
0.33005
0.39039
0.25985
0.084975
-0.094828
-0.12931
0.034483
0.18473
0.32512
0.39039
0.41502
0.43966
0.44458
0.41995
0.41995
0.41995
0.45443
0.42488
0.44458
0.42488
0.46552
0.42488
0.40517
0.4298
0.44951
0.41995
0.47537
0.45443
0.47044
0.45443
0.49015
0.43473
0.46552
0.43473
0.41502
0.4101
0.34483
0.3399
0.36946
0.31527
0.30542
0.33005
0.3202
0.30049
0.35468
0.31527
0.34483
0.35961
0.34483
0.32512
0.35961
0.35468
0.38547
0.36453
0.39039
0.35961
0.38547
0.38547
0.39532
0.31527
0.33005
0.29557
0.40025
0.53448
0.64532
0.80542
0.90517
0.95936
0.99507
0.96552
0.8202
0.56527
0.3202
0.27463
0.21552
0.18966
0.22044
0.20443
0.22044
0.21059
0.24507
0.19458
0.2303
0.24507
0.1798
0.1601
0.1798
0.1601
0.13547
0.14532
0.089901
0.14039
0.11946
0.16995
0.1601
0.18966
0.22537
0.27463
0.37562
0.34975
0.34975
0.38547
0.37562
0.41995
0.39532
0.41502
0.40517
0.41995
0.4298
0.41995
0.44458
0.43966
0.4298
0.44458
0.44951
0.41995
0.44458
0.44951
0.46059
0.46552
0.47537
0.46552
0.4803
0.46552
0.47537
0.4803
0.47044
0.48522
0.49015
0.46552
0.4803
0.46552
0.49015
0.49507
0.48522
0.5
0.48522
0.47044
0.5
0.49507
0.48522
0.49015
0.4803
0.49507
0.46552
0.44951
0.43473
0.41995
0.40517
0.45443
0.46552
0.49015
0.48522
0.49015
0.49507
0.49015
0.49507
0.49507
0.49015
0.5197
0.33498
0.1601
0.0098522
-0.044335
0.22537
0.36453
0.47537
0.52956
0.55049
0.55542
0.56034
0.56034
0.56527
0.55049
0.55542
0.53941
0.56034
0.53941
0.55049
0.56034
0.5702
0.56034
0.57512
0.58005
0.58498
0.59483
0.60961
0.61453
0.60468
0.59483
0.58005
0.56527
0.53941
0.5197
0.50985
0.48522
0.46552
0.44458
0.44458
0.43473
0.4298
0.44458
0.44458
0.46059
0.44951
0.46552
0.45443
0.47044
0.47044
0.4803
0.48522
0.47537
0.47044
0.46552
0.47044
0.45443
0.44458
0.44951
0.43966
0.43966
0.44458
0.44458
0.41502
0.39532
0.37562
0.35961
0.36453
0.37562
0.40025
0.4101
0.43473
0.41995
0.41995
0.42488
0.41995
0.41995
0.41502
0.44458
0.36946
0.16502
0.024631
-0.094828
0.060345
0.2303
0.36946
0.45443
0.4803
0.49507
0.5
0.49507
0.49507
0.50493
0.49507
0.5
0.50493
0.49015
0.5
0.50985
0.49507
0.51478
0.52956
0.53448
0.53448
0.56034
0.56527
0.56034
0.56527
0.54557
0.52956
0.51478
0.49507
0.46552
0.44458
0.43473
0.41995
0.4101
0.41995
0.41995
0.41995
0.41995
0.4298
0.42488
0.4298
0.43473
0.43966
0.44458
0.44458
0.44951
0.44458
0.44951
0.45443
0.44951
0.44458
0.46552
0.43966
0.44951
0.43473
0.45443
0.44458
0.44458
0.44458
0.42488
0.40517
0.39532
0.36946
0.36453
0.35468
0.39532
0.41502
0.43473
0.43966
0.43473
0.41995
0.41995
0.41995
0.41995
0.43473
0.44951
0.26478
0.094828
-0.055419
-0.10468
0.17488
0.31034
0.41995
0.45443
0.46552
0.46552
0.4803
0.4803
0.48522
0.47044
0.4803
0.47537
0.49015
0.48522
0.49015
0.47537
0.48522
0.49507
0.49015
0.51478
0.50985
0.53448
0.54557
0.53941
0.53941
0.52956
0.51478
0.5
0.47044
0.46552
0.44458
0.43473
0.41995
0.41995
0.4101
0.4101
0.40517
0.39532
0.39532
0.40517
0.40025
0.4101
0.41995
0.41502
0.41502
0.42488
0.4298
0.43966
0.41502
0.38547
0.36946
0.45443
0.55542
0.68966
0.81034
0.94458
1.0296
1.0603
1.08
0.89039
0.64039
0.38054
0.28941
0.25493
0.25493
0.25985
0.27956
0.28448
0.28941
0.29557
0.30049
0.28448
0.27956
0.26478
0.25985
0.24015
0.2303
0.21552
0.19951
0.19458
0.19458
0.19951
0.21552
0.24507
0.2697
0.30049
0.3399
0.36946
0.39039
0.41502
0.41995
0.43966
0.44458
0.43966
0.44458
0.44951
0.44458
0.45443
0.44951
0.44458
0.44458
0.44951
0.46552
0.46059
0.46059
0.45443
0.46059
0.44951
0.45443
0.44458
0.44951
0.43966
0.44458
0.43473
0.43473
0.4298
0.43473
0.4298
0.42488
0.43473
0.4298
0.42488
0.42488
0.42488
0.41995
0.42488
0.41995
0.41995
0.41502
0.41995
0.41995
0.43473
0.41995
0.4298
0.42488
0.43473
0.41995
0.4298
0.42488
0.43473
0.42488
0.4298
0.41995
0.40025
0.36946
0.36453
0.34975
0.36453
0.37562
0.40517
0.41995
0.42488
0.4298
0.42488
0.4298
0.42488
0.41995
0.43966
0.39532
0.19458
0.055419
-0.084975
0.034483
0.22537
0.36453
0.44951
0.5
0.49507
0.50493
0.49507
0.5
0.49015
0.5
0.49507
0.48522
0.49507
0.49015
0.50493
0.51478
0.51478
0.50985
0.52956
0.52956
0.56034
0.55049
0.5702
0.57512
0.58498
0.55542
0.54557
0.52956
0.51478
0.50493
0.48522
0.46552
0.46059
0.42488
0.4298
0.41995
0.41502
0.4101
0.41995
0.41995
0.41995
0.4298
0.42488
0.43473
0.4298
0.44951
0.44458
0.46059
0.45443
0.46059
0.44458
0.44951
0.44458
0.44458
0.4298
0.4298
0.4298
0.4298
0.41995
0.43473
0.41502
0.39532
0.36946
0.35468
0.34975
0.35961
0.39039
0.4101
0.42488
0.41995
0.43473
0.4298
0.44458
0.44458
0.43473
0.46059
0.47044
0.23522
0.094828
-0.039409
-0.044335
0.23522
0.38054
0.4803
0.52463
0.53448
0.53448
0.53448
0.53448
0.53448
0.53448
0.53941
0.53941
0.53448
0.53941
0.55049
0.55049
0.55542
0.55542
0.56034
0.56527
0.58498
0.58498
0.59483
0.58498
0.57512
0.56034
0.54557
0.52463
0.51478
0.49015
0.47537
0.45443
0.44458
0.44951
0.44458
0.43473
0.43473
0.43966
0.43473
0.43966
0.43966
0.44458
0.43966
0.44951
0.44458
0.44458
0.43473
0.43473
0.43966
0.43473
0.4298
0.43473
0.4298
0.43966
0.41995
0.41995
0.42488
0.4101
0.39532
0.36946
0.34975
0.33005
0.35961
0.39039
0.4101
0.41502
0.42488
0.41995
0.42488
0.41995
0.43966
0.41995
0.44951
0.46552
0.27463
0.12562
0.0049261
-0.024631
0.24015
0.35961
0.44458
0.47537
0.49015
0.49015
0.49015
0.48522
0.49015
0.4803
0.47537
0.4803
0.47537
0.48522
0.47537
0.48522
0.49015
0.5
0.49507
0.5197
0.51478
0.53448
0.53448
0.53941
0.52956
0.53448
0.51478
0.50985
0.48522
0.46552
0.44951
0.44951
0.4298
0.42488
0.41995
0.41995
0.41995
0.41502
0.41502
0.4101
0.41502
0.4101
0.41995
0.41502
0.4101
0.40517
0.41502
0.4101
0.41502
0.4101
0.41502
0.4101
0.41995
0.41502
0.4101
0.4101
0.41502
0.41995
0.4101
0.40517
0.41995
0.40025
0.37562
0.35961
0.3399
0.33498
0.34483
0.36946
0.39532
0.4101
0.4101
0.41995
0.4101
0.42488
0.4101
0.40517
0.41502
0.41995
0.19951
0.070197
-0.070197
-0.084975
0.1798
0.32512
0.42488
0.47044
0.49015
0.48522
0.49507
0.49015
0.5
0.49507
0.5
0.49507
0.5
0.5
0.50493
0.5
0.50985
0.5197
0.53448
0.54557
0.56034
0.56527
0.58005
0.56527
0.56034
0.53941
0.52956
0.50985
0.49015
0.46552
0.44458
0.4298
0.41995
0.41502
0.40517
0.4101
0.40517
0.41502
0.40517
0.41995
0.41502
0.41995
0.41995
0.43473
0.43473
0.44458
0.4298
0.4298
0.43473
0.42488
0.43473
0.42488
0.4298
0.42488
0.43966
0.42488
0.4298
0.41502
0.40025
0.38054
0.35961
0.34975
0.35468
0.38547
0.41502
0.41995
0.43473
0.4298
0.43966
0.4298
0.43473
0.41995
0.44458
0.45443
0.25493
0.10468
-0.034483
-0.065271
0.18966
0.33005
0.43966
0.49015
0.50493
0.51478
0.51478
0.51478
0.51478
0.5197
0.51478
0.51478
0.51478
0.51478
0.5197
0.52956
0.53448
0.53448
0.54557
0.56034
0.56527
0.58498
0.58498
0.58498
0.58005
0.55542
0.53448
0.51478
0.5
0.47537
0.46552
0.44951
0.44458
0.43473
0.4298
0.41995
0.4298
0.43473
0.43966
0.43473
0.44951
0.44458
0.44951
0.44951
0.46059
0.44458
0.44458
0.44458
0.43966
0.44458
0.43473
0.43966
0.4298
0.43473
0.41995
0.42488
0.39532
0.39039
0.35961
0.34975
0.3399
0.38054
0.39039
0.41995
0.4298
0.43473
0.42488
0.41995
0.42488
0.4298
0.41502
0.45443
0.39039
0.20443
0.089901
-0.0049261
0.14532
0.28941
0.40517
0.46059
0.4803
0.49015
0.49507
0.49015
0.49507
0.49015
0.49507
0.49015
0.49507
0.49015
0.49015
0.49507
0.49015
0.49015
0.5
0.50493
0.51478
0.5197
0.52956
0.53448
0.5197
0.51478
0.5
0.48522
0.47044
0.46059
0.44458
0.43966
0.41995
0.41995
0.40517
0.40025
0.40025
0.39532
0.39039
0.39532
0.39532
0.40025
0.39532
0.40517
0.39532
0.40517
0.39532
0.40517
0.39532
0.40517
0.41502
0.39532
0.40517
0.39532
0.40517
0.36946
0.39532
0.37562
0.40517
0.35961
0.36946
0.32512
0.33498
0.28941
0.33005
0.3399
0.38054
0.36946
0.40025
0.39039
0.41502
0.41995
0.38054
0.41502
0.43966
0.38054
0.17488
0.050493
-0.094828
0.045567
0.19458
0.34483
0.41502
0.47537
0.46059
0.48522
0.47537
0.48522
0.48522
0.4803
0.47537
0.4803
0.48522
0.49507
0.48522
0.49015
0.5
0.5197
0.53448
0.52956
0.53941
0.55542
0.56527
0.53941
0.52956
0.50985
0.5
0.48522
0.46552
0.45443
0.44951
0.4298
0.43473
0.41502
0.41502
0.40517
0.41995
0.40025
0.4101
0.4101
0.41502
0.41502
0.42488
0.41995
0.43966
0.4298
0.42488
0.44458
0.4298
0.44458
0.43473
0.43966
0.41995
0.41502
0.41995
0.41995
0.39039
0.37562
0.3399
0.34483
0.31527
0.34483
0.37562
0.41502
0.41995
0.42488
0.41502
0.41995
0.41502
0.4101
0.41995
0.43473
0.37562
0.19458
0.060345
-0.080049
0.045567
0.21059
0.35468
0.44951
0.49015
0.5
0.51478
0.49507
0.51478
0.49015
0.5
0.50493
0.51478
0.50493
0.5197
0.51478
0.52463
0.52956
0.54557
0.53941
0.56034
0.5702
0.58005
0.58498
0.58005
0.5899
0.56527
0.53941
0.52463
0.49507
0.46552
0.44458
0.43473
0.42488
0.4101
0.41502
0.41995
0.42488
0.41995
0.43473
0.4298
0.43966
0.44458
0.44458
0.45443
0.44458
0.43473
0.43966
0.43473
0.4298
0.43473
0.4298
0.43966
0.41995
0.42488
0.41995
0.39532
0.36946
0.35961
0.33005
0.33498
0.34483
0.38547
0.40025
0.41995
0.41995
0.43473
0.42488
0.43473
0.41995
0.41502
0.44458
0.39039
0.20443
0.075123
-0.039409
0.080049
0.25
0.37562
0.46059
0.48522
0.50493
0.5
0.50493
0.50985
0.51478
0.5
0.51478
0.50493
0.51478
0.51478
0.5197
0.51478
0.53448
0.53941
0.54557
0.55542
0.5702
0.57512
0.5702
0.58005
0.56034
0.55049
0.52956
0.5197
0.48522
0.49015
0.44458
0.46552
0.4298
0.44951
0.41502
0.43966
0.4101
0.43966
0.4101
0.43473
0.41995
0.44458
0.45443
0.41995
0.44951
0.41995
0.44951
0.41995
0.44458
0.41995
0.44458
0.41502
0.44458
0.41995
0.41502
0.36453
0.36946
0.35468
0.41502
0.42488
0.46059
0.43966
0.46552
0.43473
0.42488
0.4101
0.4101
0.39532
0.39039
0.41995
0.31527
0.13547
0.0049261
-0.080049
0.12562
0.2697
0.37562
0.43473
0.44458
0.46059
0.45443
0.46552
0.46059
0.46552
0.45443
0.47044
0.45443
0.46059
0.46059
0.46552
0.44951
0.46552
0.46059
0.48522
0.4803
0.49507
0.50985
0.50493
0.51478
0.5
0.48522
0.46059
0.46552
0.41995
0.41995
0.39532
0.39039
0.38054
0.38547
0.37562
0.37562
0.36946
0.36946
0.36453
0.36946
0.35961
0.36946
0.36946
0.37562
0.36946
0.38054
0.38547
0.39532
0.37562
0.37562
0.38547
0.39039
0.39532
0.39039
0.38547
0.39039
0.39532
0.34975
0.35961
0.3202
0.31527
0.30049
0.33005
0.35468
0.36946
0.36946
0.39039
0.37562
0.38547
0.38054
0.39039
0.38547
0.41502
0.30049
0.12562
-0.0098522
-0.089901
0.089901
0.23522
0.36946
0.42488
0.44951
0.47044
0.47537
0.46552
0.46552
0.47537
0.48522
0.4803
0.50493
0.49015
0.5
0.49507
0.50493
0.50985
0.52463
0.52956
0.55049
0.56034
0.58498
0.5899
0.58498
0.56527
0.52956
0.50985
0.49507
0.47044
0.44458
0.44951
0.41995
0.4101
0.39532
0.40517
0.39532
0.4101
0.39532
0.40517
0.40025
0.42488
0.42488
0.44951
0.41502
0.4298
0.43473
0.42488
0.41502
0.41502
0.41502
0.41502
0.41995
0.43966
0.46552
0.44458
0.41995
0.38054
0.33498
0.30049
0.25985
0.22044
0.24015
0.014778
-0.039409
0.0049261
0.1601
0.31034
0.43473
0.44951
0.41995
0.42488
0.1601
-0.044335
-0.11453
-0.019704
0.22537
0.38054
0.5
0.56034
0.58005
0.59483
0.56034
0.56527
0.52956
0.5197
0.50985
0.65025
0.79557
0.88547
0.82512
0.81527
0.71552
0.69951
0.72044
0.66995
0.68473
0.63054
0.65025
0.59483
0.5702
0.52956
0.53941
0.4803
0.49015
0.43473
0.45443
0.39532
0.41995
0.37562
0.41995
0.37562
0.41502
0.38547
0.41995
0.40025
0.43473
0.40025
0.4298
0.43966
0.41502
0.44951
0.39532
0.43966
0.39532
0.4298
0.41502
0.40025
0.40025
0.4101
0.35961
0.34975
0.3399
0.33005
0.3202
0.34975
0.37562
0.40025
0.39532
0.40517
0.4101
0.41502
0.4101
0.41995
0.40517
0.45443
0.36453
0.19458
0.070197
-0.0098522
0.15025
0.25985
0.34975
0.4101
0.44458
0.46059
0.47537
0.46552
0.46552
0.45443
0.46059
0.44458
0.46552
0.45443
0.46552
0.45443
0.47044
0.46059
0.47537
0.47044
0.48522
0.49507
0.5
0.48522
0.49015
0.48522
0.46552
0.43966
0.4101
0.37562
0.3399
0.43966
0.6601
0.78941
0.75493
0.7697
0.74015
0.68966
0.5899
0.5197
0.46059
0.43966
0.40025
0.37562
0.35961
0.34975
0.34975
0.34975
0.32512
0.33005
0.33498
0.32512
0.32512
0.32512
0.32512
0.32512
0.33005
0.32512
0.31034
0.27956
0.27463
0.25985
0.26478
0.27956
0.32512
0.3399
0.34975
0.34483
0.33498
0.33498
0.3399
0.31034
0.33005
0.34975
0.14532
-0.0098522
-0.12931
-0.084975
0.11946
0.26478
0.34975
0.40517
0.40025
0.41995
0.41502
0.4298
0.4298
0.42488
0.41995
0.43966
0.41502
0.41995
0.45443
0.4803
0.47044
0.5
0.49507
0.51478
0.52956
0.53941
0.54557
0.53941
0.55542
0.53448
0.51478
0.49507
0.44951
0.41995
0.40517
0.39039
0.39532
0.36453
0.34975
0.32512
0.31527
0.31034
0.34483
0.34975
0.36946
0.38547
0.39532
0.40025
0.41995
0.42488
0.41995
0.46059
0.48522
0.46552
0.43966
0.43473
0.44951
0.45443
0.4298
0.40517
0.39039
0.35468
0.33005
0.31527
0.3399
0.37562
0.39039
0.41502
0.41502
0.41995
0.42488
0.41995
0.39532
0.43966
0.39039
0.21552
0.065271
-0.065271
0.024631
0.19458
0.3399
0.43473
0.50985
0.5
0.52956
0.5197
0.5702
0.53448
0.5702
0.54557
0.53448
0.52956
0.53448
0.51478
0.53448
0.52463
0.5197
0.52956
0.52463
0.53448
0.55049
0.54557
0.55049
0.55542
0.52463
0.50985
0.49015
0.4803
0.46059
0.43966
0.41995
0.4101
0.39532
0.38054
0.36946
0.37562
0.36453
0.37562
0.36946
0.39039
0.39532
0.41995
0.41995
0.44951
0.46059
0.44951
0.45443
0.44458
0.42488
0.41995
0.39532
0.38547
0.36946
0.34975
0.3399
0.32512
0.33498
0.33005
0.36453
0.38547
0.43473
0.44458
0.46059
0.46552
0.46059
0.44951
0.45443
0.44458
0.46552
0.3399
0.17488
0.045567
-0.024631
0.16502
0.30542
0.42488
0.46059
0.50493
0.49507
0.52463
0.49015
0.5197
0.49015
0.52463
0.49015
0.52956
0.49507
0.52463
0.5
0.52463
0.50985
0.53941
0.52956
0.55542
0.56034
0.53941
0.56034
0.53448
0.56527
0.53448
0.54557
0.49507
0.50985
0.47537
0.49015
0.44458
0.46552
0.42488
0.44458
0.41502
0.44458
0.41502
0.43966
0.41995
0.43966
0.41995
0.44458
0.42488
0.41995
0.43473
0.41995
0.44951
0.42488
0.44951
0.4298
0.46059
0.44458
0.4101
0.37562
0.35961
0.33005
0.34975
0.31527
0.37562
0.36453
0.39532
0.36946
0.39532
0.36946
0.39532
0.35961
0.34975
0.39039
0.28941
0.099754
-0.014778
-0.10468
0.094828
0.2303
0.34975
0.4101
0.43473
0.45443
0.42488
0.44951
0.4298
0.44951
0.43473
0.46059
0.44458
0.47537
0.45443
0.4803
0.46059
0.48522
0.47537
0.50493
0.5
0.53448
0.5197
0.51478
0.53448
0.50985
0.52463
0.48522
0.46552
0.44458
0.46059
0.40025
0.41502
0.39039
0.4101
0.37562
0.39532
0.38054
0.40025
0.36946
0.41502
0.39039
0.41502
0.39039
0.41995
0.39039
0.41995
0.39532
0.41502
0.39532
0.41995
0.40517
0.39039
0.41995
0.39532
0.37562
0.34483
0.36453
0.3202
0.34975
0.3399
0.39532
0.38054
0.41995
0.40517
0.42488
0.40517
0.43473
0.39532
0.43473
0.38547
0.25
0.094828
-0.019704
-0.050493
0.18966
0.31034
0.4298
0.47044
0.49507
0.51478
0.49015
0.51478
0.49015
0.52463
0.49507
0.5197
0.49015
0.51478
0.49507
0.53448
0.51478
0.55049
0.52956
0.56527
0.56034
0.58498
0.56527
0.58005
0.55542
0.54557
0.56034
0.50985
0.4803
0.46059
0.46552
0.41502
0.4298
0.40025
0.41995
0.40517
0.41995
0.40025
0.42488
0.40517
0.43473
0.41502
0.44458
0.4298
0.44951
0.41995
0.44458
0.41995
0.44458
0.42488
0.41502
0.43473
0.41502
0.43966
0.37562
0.39532
0.34483
0.35468
0.33005
0.39532
0.39039
0.43966
0.41995
0.44458
0.43966
0.44458
0.43473
0.43966
0.44458
0.46059
0.21552
0.11946
-0.039409
0.084975
0.2303
0.38547
0.46552
0.50985
0.53448
0.5
0.53448
0.51478
0.51478
0.51478
0.50985
0.50493
0.52463
0.51478
0.52463
0.5197
0.53448
0.52956
0.56034
0.56034
0.58005
0.5702
0.5702
0.56034
0.56527
0.52463
0.5197
0.49507
0.48522
0.46552
0.45443
0.43966
0.43473
0.41995
0.41502
0.41995
0.40517
0.41502
0.41995
0.43473
0.4298
0.44458
0.42488
0.43473
0.43473
0.43966
0.42488
0.43966
0.42488
0.4298
0.4298
0.4298
0.39039
0.36946
0.34975
0.32512
0.33005
0.32512
0.39039
0.40025
0.4101
0.40517
0.41995
0.41502
0.40517
0.39532
0.41502
0.43966
0.33005
0.14532
0.014778
-0.055419
0.13547
0.2697
0.38547
0.43473
0.46552
0.45443
0.44951
0.46552
0.44951
0.45443
0.47537
0.46552
0.45443
0.47044
0.5
0.50493
0.49015
0.50493
0.49015
0.50493
0.5
0.51478
0.50493
0.5
0.46552
0.49015
0.4803
0.45443
0.40025
0.38054
0.33005
0.25985
0.10961
0.014778
0.060345
0.070197
-0.12931
-0.065271
-0.0049261
-0.10468
-0.12931
-0.12931
-0.060345
0.034483
0.15517
0.33005
0.56034
0.72537
0.83498
0.85961
0.91995
0.96552
1.0653
1.0099
0.98522
1.0296
1.1305
1.1305
1.1096
0.86453
0.63054
0.5
0.60468
0.74015
0.83005
0.85961
0.8202
0.80542
0.79557
0.80049
0.70936
0.71552
0.53448
0.33005
0.1601
0.050493
0.22044
0.39532
0.54557
0.61946
0.61453
0.5702
0.4803
0.4101
0.34483
0.27956
0.21552
0.20443
0.1798
0.21059
0.12562
-0.039409
-0.12931
-0.12931
-0.12931
-0.12931
-0.014778
0.10468
0.21552
0.28941
0.38547
0.43966
0.49507
0.51478
0.5197
0.47537
0.48522
0.43473
0.42488
0.41995
0.40517
0.40517
0.39532
0.40025
0.41502
0.40517
0.43473
0.46059
0.43473
0.45443
0.44951
0.48522
0.47537
0.5
0.48522
0.49015
0.47044
0.46552
0.46059
0.46552
0.40025
0.4101
0.36946
0.36453
0.3399
0.39532
0.43966
0.38547
0.46552
0.41502
0.47537
0.39039
0.44951
0.39532
0.43473
0.40025
0.4101
0.12562
0.0098522
-0.050493
0.1601
0.29557
0.4298
0.48522
0.52463
0.51478
0.52956
0.5197
0.53941
0.53448
0.53941
0.52463
0.53448
0.52463
0.50985
0.50493
0.45443
0.38547
0.34975
0.35468
0.38547
0.43473
0.4803
0.52463
0.53448
0.56034
0.54557
0.55049
0.50985
0.50493
0.4803
0.47537
0.45443
0.46059
0.44458
0.44951
0.44458
0.46059
0.46552
0.44458
0.46552
0.48522
0.49015
0.47537
0.49015
0.47537
0.49015
0.47044
0.47537
0.45443
0.46552
0.46059
0.47044
0.43966
0.44458
0.4101
0.40517
0.41502
0.44951
0.46552
0.5
0.5
0.50493
0.51478
0.48522
0.44458
0.39532
0.37562
0.37562
0.24015
0.13054
0.055419
0.019704
0.30049
0.46552
0.59483
0.6601
0.6798
0.66995
0.67488
0.63054
0.60468
0.58005
0.5702
0.54557
0.53448
0.50985
0.5
0.50985
0.52463
0.53448
0.51478
0.50985
0.51478
0.5197
0.50985
0.51478
0.51478
0.5197
0.49015
0.4803
0.44951
0.43473
0.40517
0.39532
0.38547
0.38547
0.36946
0.36946
0.34975
0.36946
0.36453
0.37562
0.38547
0.40025
0.41502
0.42488
0.43473
0.4298
0.43473
0.41995
0.42488
0.4101
0.41502
0.37562
0.37562
0.37562
0.39039
0.34975
0.34975
0.33005
0.33005
0.33498
0.36946
0.39532
0.41502
0.4101
0.41995
0.4101
0.40517
0.41995
0.40025
0.39532
0.41502
0.27463
0.12562
-0.014778
-0.080049
0.14532
0.25493
0.36946
0.4298
0.46552
0.45443
0.47044
0.47537
0.48522
0.49015
0.50985
0.50493
0.52463
0.52956
0.5197
0.50493
0.50985
0.51478
0.52463
0.53448
0.54557
0.56034
0.56034
0.54557
0.53448
0.52463
0.49507
0.46552
0.44951
0.44458
0.41995
0.41995
0.40517
0.4101
0.39039
0.39532
0.36946
0.38547
0.36946
0.38054
0.37562
0.36453
0.36946
0.36453
0.37562
0.35468
0.34975
0.35468
0.34975
0.32512
0.36946
0.32512
0.38054
0.31034
0.3399
0.27956
0.32512
0.27956
0.3399
0.32512
0.40517
0.38547
0.41502
0.39039
0.42488
0.40025
0.42488
0.38547
0.4298
0.43966
0.1798
0.050493
-0.080049
0.070197
0.20443
0.36453
0.41502
0.49507
0.46552
0.50985
0.4803
0.49507
0.47044
0.48522
0.47537
0.4803
0.47044
0.4803
0.47044
0.49015
0.48522
0.50493
0.51478
0.50985
0.53448
0.52956
0.53941
0.55542
0.52956
0.50985
0.49015
0.4803
0.46059
0.43966
0.41995
0.40517
0.4101
0.39532
0.40517
0.39532
0.37562
0.36453
0.34975
0.31034
0.22044
0.089901
-0.050493
-0.075123
0.04064
0.1601
0.30049
0.4101
0.48522
0.49015
0.50985
0.5197
0.5
0.50493
0.49015
0.50985
0.5
0.50985
0.50985
0.52463
0.51478
0.51478
0.50493
0.49507
0.4803
0.4803
0.46059
0.49015
0.40025
0.22044
0.10468
0
0.14039
0.30049
0.42488
0.49015
0.52463
0.53448
0.52956
0.52463
0.52463
0.5197
0.52463
0.52463
0.51478
0.51478
0.52956
0.52463
0.53448
0.5197
0.52956
0.51478
0.5
0.5
0.53941
0.5702
0.61946
0.63054
0.62438
0.60961
0.58498
0.56527
0.55049
0.55542
0.52956
0.50985
0.49015
0.49015
0.47044
0.47537
0.46552
0.46552
0.44458
0.45443
0.43966
0.44458
0.41995
0.43966
0.4298
0.43966
0.41995
0.41995
0.41502
0.41995
0.38054
0.36946
0.34975
0.3399
0.3399
0.36946
0.39532
0.4101
0.41995
0.41502
0.41995
0.40025
0.42488
0.41502
0.40517
0.43966
0.35961
0.1601
0.029557
-0.060345
0.13547
0.29557
0.41995
0.49507
0.51478
0.52463
0.51478
0.53448
0.50985
0.5197
0.5
0.50985
0.49015
0.5
0.49015
0.50493
0.49015
0.49507
0.49015
0.50985
0.5
0.51478
0.51478
0.50493
0.47537
0.47044
0.47537
0.44458
0.41995
0.41502
0.38547
0.39532
0.37562
0.36946
0.37562
0.36453
0.37562
0.35961
0.35961
0.36453
0.37562
0.38547
0.40025
0.40517
0.4101
0.31527
0.30542
0.32512
0.37562
0.39039
0.38547
0.4298
0.40025
0.46059
0.4101
0.47044
0.38054
0.41995
0.33005
0.36453
0.33005
0.39039
0.36946
0.44458
0.39039
0.43966
0.39039
0.43966
0.40025
0.41995
0.41502
0.41995
0.16995
0.050493
-0.099754
0.029557
0.17488
0.31527
0.4101
0.44458
0.46059
0.45443
0.45443
0.47537
0.49015
0.49507
0.5
0.5
0.50985
0.5
0.50493
0.50985
0.51478
0.53448
0.56034
0.55542
0.57512
0.57512
0.5899
0.56527
0.5702
0.54557
0.54557
0.50985
0.49507
0.46059
0.45443
0.43473
0.4298
0.41995
0.41995
0.41995
0.41502
0.42488
0.40025
0.41502
0.39039
0.39532
0.38547
0.40517
0.39039
0.40025
0.38547
0.39532
0.37562
0.38547
0.38547
0.39532
0.35961
0.34975
0.32512
0.32512
0.3202
0.35468
0.39039
0.41502
0.43966
0.42488
0.40517
0.39532
0.40025
0.38547
0.41995
0.43966
0.31034
0.15025
0.034483
-0.019704
0.21552
0.3202
0.44458
0.48522
0.51478
0.5
0.50985
0.5
0.50985
0.5197
0.50493
0.50985
0.49015
0.5
0.4803
0.50493
0.5
0.51478
0.50985
0.52463
0.5197
0.55049
0.54557
0.55542
0.52956
0.53448
0.50493
0.5
0.46059
0.45443
0.4298
0.41995
0.40025
0.39532
0.39532
0.39039
0.38054
0.36946
0.39532
0.39039
0.39532
0.39039
0.4101
0.40025
0.41995
0.40517
0.4101
0.40025
0.41995
0.40025
0.41995
0.40025
0.39532
0.36453
0.35468
0.32512
0.33498
0.34483
0.38054
0.39039
0.40517
0.41502
0.4101
0.43473
0.41995
0.44458
0.41502
0.44951
0.45443
0.23522
0.089901
-0.039409
-0.055419
0.21059
0.33005
0.44458
0.47044
0.49015
0.49015
0.50985
0.50985
0.51478
0.50493
0.50985
0.51478
0.50493
0.52463
0.5197
0.52463
0.51478
0.51478
0.50985
0.5197
0.54557
0.55542
0.52956
0.55049
0.50985
0.51478
0.48522
0.46552
0.4298
0.40517
0.4101
0.36453
0.34975
0.3399
0.31034
0.36453
0.31527
0.29557
0.35961
0.3202
0.40517
0.31034
0.33498
0.24507
0.36453
0.25985
0.33005
0.25985
0.31527
0.27956
0.34975
0.28941
0.2697
0.25985
0.28448
0.20443
0.26478
0.30049
0.29557
0.32512
0.31034
0.39532
0.33005
0.39532
0.32512
0.35961
0.31034
0.42488
0.16995
-0.0049261
-0.12931
-0.10961
0.13054
0.22044
0.34483
0.41995
0.39532
0.47044
0.44951
0.39532
0.38054
0.4803
0.45443
0.49015
0.41995
0.44951
0.43473
0.49507
0.46059
0.41995
0.4101
0.53448
0.52956
0.5197
0.55049
0.52956
0.55049
0.49015
0.5
0.46059
0.46552
0.41995
0.4803
0.38054
0.39039
0.35961
0.41502
0.35468
0.43473
0.40025
0.37562
0.38547
0.41502
0.4298
0.40517
0.43966
0.41995
0.46059
0.4101
0.43966
0.40517
0.4298
0.42488
0.47537
0.38054
0.39039
0.33005
0.36946
0.33005
0.40025
0.4101
0.4298
0.42488
0.42488
0.4298
0.41502
0.42488
0.43473
0.42488
0.4803
0.30049
0.10961
-0.065271
-0.10961
0.14532
0.30542
0.44951
0.49015
0.52956
0.49507
0.52463
0.54557
0.55049
0.53448
0.54557
0.52956
0.5197
0.55542
0.52463
0.54557
0.58498
0.53941
0.5197
0.57512
0.56034
0.59975
0.57512
0.55049
0.59975
0.53448
0.52463
0.53448
0.53941
0.44951
0.41995
0.39532
0.44458
0.43473
0.40025
0.4101
0.41502
0.43966
0.4298
0.4803
0.44951
0.46552
0.44458
0.46552
0.45443
0.46552
0.4298
0.47044
0.49015
0.46059
0.47044
0.43473
0.45443
0.38054
0.41502
0.38547
0.42488
0.39039
0.42488
0.43966
0.46552
0.44458
0.49015
0.43473
0.4803
0.48522
0.46552
0.47537
0.30542
0.13054
-0.014778
-0.060345
0.16502
0.32512
0.41995
0.50985
0.53448
0.49507
0.45443
0.48522
0.5
0.45443
0.52956
0.56034
0.48522
0.51478
0.43966
0.56527
0.54557
0.60468
0.5899
0.61946
0.58005
0.61453
0.59975
0.64532
0.71552
0.58005
0.64039
0.68966
0.58498
0.53448
0.55542
0.49015
0.54557
0.59975
0.65517
0.44951
0.63054
0.58005
0.66995
0.55049
0.68473
0.71552
0.75493
0.63547
0.76478
0.70443
0.75493
0.72537
0.81034
0.83498
0.75
0.78941
0.83498
0.85468
0.74507
0.84483
0.75
0.8202
0.80542
0.89039
0.86946
0.97044
0.97537
0.90517
0.91995
0.97044
0.91502
1
1.0197
0.70443
0.59975
0.50493
0.62438
0.80542
0.92488
1.0443
1.1145
1.1244
1.1047
1.0948
1.1305
1.0998
1.1145
1.1096
1.1305
1.1305
1.1305
1.1244
1.1305
1.1305
1.1305
1.1305
1.1305
1.1305
1.1305
1.1305
1.1305
1.1305
1.1305
1.1293
1.0899
1.0554
1.0702
1.08
1.0296
1.0099
0.97537
1
0.98522
0.99015
1.0345
1.0246
1.0296
1.0246
1
0.99015
0.9803
0.95443
0.9803
1.0049
0.96552
0.97044
0.93473
0.93966
0.95443
0.90517
0.88054
0.89532
0.83498
0.86453
0.88547
0.88054
0.91995
0.88054
0.90025
0.88547
0.86946
0.87438
0.84975
0.87438
0.89532
0.69458
0.50985
0.35468
0.30542
0.55049
0.70443
0.79557
0.86453
0.85961
0.89039
0.85961
0.84975
0.86453
0.84483
0.83498
0.8399
0.8202
0.80049
0.84483
0.83005
0.8399
0.8202
0.8399
0.84483
0.85468
0.82512
0.83498
0.8202
0.84975
0.78448
0.75985
0.7303
0.7303
0.67488
0.65025
0.61946
0.60961
0.59975
0.5899
0.58498
0.57512
0.55542
0.53448
0.57512
0.54557
0.53448
0.53941
0.54557
0.51478
0.54557
0.5
0.50985
0.48522
0.4803
0.48522
0.47537
0.43966
0.43473
0.38547
0.36453
0.37562
0.36946
0.39532
0.4298
0.41995
0.42488
0.4101
0.39532
0.4101
0.39039
0.40025
0.42488
0.37562
0.1601
0.019704
-0.11453
0
0.1601
0.31034
0.34975
0.39039
0.40025
0.40517
0.38054
0.40025
0.38547
0.39039
0.36453
0.36946
0.37562
0.35961
0.36946
0.34975
0.36946
0.36453
0.36946
0.35961
0.39532
0.36946
0.39039
0.38054
0.39039
0.32512
0.36946
0.29557
0.33005
0.26478
0.30049
0.24015
0.2697
0.22044
0.20443
0.26478
0.18966
0.25493
0.18473
0.24507
0.18966
0.24507
0.1798
0.2303
0.18473
0.23522
0.16995
0.2303
0.1601
0.22537
0.1798
0.18966
0.1798
0.18473
0.15025
0.14039
0.11946
0.10961
0.089901
0.15025
0.1601
0.18473
0.19458
0.16502
0.19458
0.1798
0.18966
0.18473
0.19458
0.19951
0.045567
-0.10961
-0.12931
-0.12931
-0.050493
0.080049
0.19951
0.22537
0.2697
0.25493
0.27956
0.25985
0.27463
0.24507
0.2697
0.25
0.24015
0.26478
0.25493
0.27463
0.26478
0.27463
0.27956
0.30049
0.31034
0.32512
0.30542
0.32512
0.30049
0.30049
0.27956
0.28448
0.24015
0.24507
0.22044
0.21059
0.18473
0.18473
0.16995
0.1798
0.1601
0.1798
0.16502
0.15517
0.18473
0.15517
0.1798
0.18473
0.19458
0.17488
0.18966
0.17488
0.18966
0.16995
0.18473
0.18473
0.18966
0.1798
0.18473
0.14039
0.14532
0.10468
0.11453
0.10468
0.13054
0.1601
0.18473
0.16995
0.16502
0.18473
0.16995
0.19951
0.17488
0.19458
0.19951
0.050493
-0.12438
-0.12931
-0.12931
-0.044335
0.080049
0.19951
0.23522
0.27956
0.25493
0.27463
0.27956
0.2697
0.27463
0.28941
0.27463
0.28448
0.27956
0.30049
0.28941
0.31034
0.3202
0.31034
0.33498
0.33005
0.34975
0.35961
0.37562
0.34975
0.34975
0.32512
0.3202
0.28448
0.27463
0.2303
0.25493
0.22537
0.2303
0.21552
0.2303
0.21059
0.20443
0.21552
0.21059
0.23522
0.22537
0.23522
0.2303
0.25
0.24015
0.25493
0.2303
0.25
0.2303
0.25
0.2303
0.25493
0.2303
0.22537
0.20443
0.19458
0.1601
0.18473
0.18966
0.2303
0.22537
0.25493
0.2697
0.25493
0.2697
0.27956
0.25985
0.24507
0.28941
0.18966
0.019704
-0.10961
-0.12931
-0.039409
0.13054
0.24015
0.31527
0.3399
0.35468
0.34975
0.37562
0.35468
0.36946
0.35468
0.38054
0.36946
0.38054
0.34483
0.39039
0.42488
0.35468
0.43966
0.38054
0.46059
0.40025
0.4803
0.41502
0.48522
0.4101
0.47044
0.37562
0.44458
0.3399
0.40025
0.3202
0.37562
0.28941
0.34975
0.35961
0.31034
0.35468
0.28448
0.35468
0.32512
0.34975
0.32512
0.34483
0.32512
0.34483
0.33005
0.3399
0.32512
0.34975
0.33005
0.33498
0.31527
0.33498
0.29557
0.28941
0.25493
0.24507
0.22537
0.2697
0.27956
0.30542
0.30049
0.3202
0.28941
0.27463
0.34975
0.2697
0.33005
0.2697
0.36946
0.089901
-0.0049261
-0.12931
0
0.10468
0.28448
0.28941
0.39532
0.33005
0.41502
0.33498
0.40517
0.34483
0.4101
0.33498
0.39039
0.40025
0.34975
0.4101
0.3399
0.41995
0.34975
0.42488
0.36946
0.44458
0.38547
0.46059
0.39039
0.44951
0.36946
0.41502
0.33498
0.38547
0.30049
0.34975
0.2697
0.3399
0.25985
0.3202
0.25493
0.31034
0.25493
0.24507
0.31034
0.24507
0.3202
0.24507
0.33005
0.26478
0.33005
0.2697
0.34483
0.2697
0.32512
0.2697
0.33005
0.26478
0.33498
0.27463
0.3399
0.23522
0.30049
0.19951
0.25985
0.18966
0.27463
0.24015
0.3202
0.33498
0.2697
0.34483
0.26478
0.33498
0.26478
0.32512
0.27956
0.33498
0.024631
-0.065271
-0.12931
0.099754
0.16502
0.34483
0.31527
0.41502
0.34483
0.42488
0.34483
0.41502
0.33498
0.40517
0.3399
0.39532
0.40517
0.34975
0.41995
0.34483
0.41995
0.36453
0.44458
0.37562
0.46552
0.40517
0.49015
0.41995
0.47044
0.39039
0.43966
0.34483
0.40025
0.32512
0.39532
0.31034
0.36946
0.30049
0.35961
0.29557
0.35468
0.28941
0.34483
0.36453
0.30049
0.36946
0.29557
0.38054
0.30542
0.38054
0.30542
0.38054
0.31034
0.38547
0.31527
0.38054
0.31527
0.38054
0.31034
0.36453
0.26478
0.3399
0.25
0.3202
0.2697
0.35961
0.33498
0.39532
0.4101
0.34483
0.42488
0.34975
0.4298
0.34483
0.4298
0.33005
0.18966
0.024631
-0.055419
-0.065271
0.26478
0.32512
0.46552
0.4298
0.52463
0.44458
0.51478
0.44951
0.52956
0.44951
0.51478
0.46059
0.52463
0.52956
0.46059
0.53941
0.46552
0.55542
0.49015
0.5899
0.51478
0.59975
0.53941
0.60961
0.52956
0.58498
0.5
0.55542
0.44951
0.51478
0.43473
0.49507
0.40517
0.47044
0.39532
0.46059
0.40025
0.39532
0.45443
0.39532
0.47537
0.41502
0.4803
0.40025
0.49015
0.41502
0.48522
0.4101
0.47044
0.40517
0.46552
0.40025
0.46059
0.39532
0.45443
0.34975
0.4101
0.31034
0.38054
0.3202
0.41995
0.37562
0.44951
0.45443
0.39532
0.44951
0.39039
0.47044
0.38054
0.44951
0.40025
0.24015
0.080049
-0.014778
-0.080049
0.24507
0.3202
0.46059
0.42488
0.50985
0.43473
0.51478
0.43966
0.50985
0.43966
0.5
0.4298
0.49015
0.43966
0.43473
0.50985
0.44458
0.5197
0.44458
0.53941
0.47044
0.56034
0.49507
0.57512
0.5
0.55049
0.47044
0.5197
0.43966
0.48522
0.39532
0.46552
0.37562
0.45443
0.36946
0.43966
0.35961
0.4298
0.36946
0.36453
0.43473
0.36453
0.44951
0.36946
0.44951
0.36946
0.46059
0.37562
0.44951
0.38547
0.44458
0.38054
0.44458
0.35961
0.44458
0.35961
0.40025
0.31527
0.39532
0.28448
0.36946
0.3202
0.4298
0.38054
0.44458
0.45443
0.38547
0.46552
0.39039
0.47537
0.36946
0.48522
0.2697
0.13054
-0.055419
0.0049261
0.14532
0.34975
0.38547
0.50985
0.44458
0.53448
0.43966
0.52956
0.43966
0.53448
0.45443
0.55542
0.5
0.57512
0.53448
0.59975
0.63054
0.56034
0.64532
0.57512
0.6798
0.63054
0.74507
0.67488
0.7303
0.63547
0.66502
0.52956
0.57512
0.52956
0.61453
0.5
0.51478
0.45443
0.55542
0.51478
0.65025
0.61453
0.67488
0.61946
0.68473
0.66995
0.73522
0.7697
0.80542
0.75
0.64039
0.52956
0.43473
0.38054
0.32512
0.3399
0.27463
0.29557
0.24015
0.24507
0.18473
0.18966
0.14532
0.20443
0.19951
0.25
0.22537
0.26478
0.25
0.27463
0.25
0.24507
0.27463
0.25
0.30542
0.075123
-0.070197
-0.12931
-0.10468
0.065271
0.22537
0.28941
0.34975
0.33498
0.37562
0.34975
0.36946
0.34975
0.39039
0.35468
0.38547
0.35468
0.38054
0.35468
0.39039
0.36946
0.40025
0.41502
0.4101
0.44458
0.41502
0.46552
0.43966
0.46059
0.41502
0.42488
0.38547
0.39532
0.34975
0.36453
0.3202
0.34483
0.3202
0.3399
0.31034
0.33498
0.30542
0.3399
0.31034
0.34483
0.3202
0.34975
0.35961
0.33005
0.35961
0.33005
0.34975
0.32512
0.34975
0.32512
0.34975
0.3202
0.33498
0.28941
0.30049
0.25493
0.27463
0.25
0.30049
0.30542
0.33005
0.32512
0.34975
0.33005
0.35961
0.33498
0.33005
0.34975
0.35468
0.17488
0.055419
-0.089901
-0.12931
0.14039
0.25985
0.35468
0.38547
0.41502
0.39532
0.41995
0.40025
0.41995
0.40025
0.42488
0.39532
0.42488
0.40025
0.4298
0.4101
0.4298
0.41502
0.44951
0.44458
0.47537
0.46059
0.45443
0.49507
0.46552
0.48522
0.43473
0.44951
0.39532
0.38547
0.36453
0.38547
0.34483
0.37562
0.3399
0.35961
0.32512
0.34975
0.32512
0.34975
0.3202
0.35468
0.3399
0.36453
0.3399
0.33498
0.35961
0.33498
0.35961
0.32512
0.36453
0.33005
0.36453
0.33498
0.35961
0.31527
0.32512
0.27463
0.27956
0.24507
0.30542
0.30049
0.35468
0.33498
0.36946
0.34975
0.36946
0.34975
0.36946
0.34975
0.39039
0.25
0.084975
-0.055419
-0.12931
0.070197
0.22044
0.3399
0.40517
0.43966
0.42488
0.46059
0.42488
0.46059
0.44458
0.46552
0.4298
0.46552
0.43966
0.47044
0.44458
0.48522
0.47537
0.50985
0.49015
0.5197
0.52956
0.52463
0.55049
0.52463
0.53448
0.49015
0.5
0.43966
0.44951
0.40025
0.41502
0.37562
0.39532
0.35961
0.39532
0.36946
0.39039
0.35468
0.40025
0.37562
0.40517
0.38054
0.4101
0.39039
0.40517
0.38547
0.40025
0.4101
0.37562
0.39532
0.36453
0.39039
0.37562
0.39532
0.33498
0.34483
0.29557
0.31034
0.29557
0.35961
0.35468
0.40517
0.36946
0.40025
0.37562
0.40517
0.37562
0.40025
0.40517
0.34975
0.14532
0.045567
-0.084975
0.075123
0.22537
0.35961
0.42488
0.44951
0.46552
0.45443
0.48522
0.46059
0.49015
0.46552
0.48522
0.46059
0.4803
0.45443
0.49507
0.47537
0.50493
0.47537
0.5197
0.50985
0.53448
0.52463
0.5197
0.53448
0.50985
0.5197
0.48522
0.49015
0.43966
0.45443
0.40517
0.41995
0.38547
0.40025
0.37562
0.40025
0.37562
0.4101
0.38547
0.41995
0.39532
0.41995
0.39532
0.42488
0.40025
0.42488
0.39532
0.42488
0.4298
0.40517
0.41995
0.39039
0.41995
0.36946
0.37562
0.33005
0.3399
0.30049
0.36453
0.35468
0.4101
0.39039
0.41502
0.40025
0.42488
0.39039
0.41502
0.39532
0.4298
0.27463
0.14532
-0.0098522
-0.055419
0.1798
0.31527
0.39532
0.44951
0.47044
0.45443
0.4803
0.44951
0.47537
0.44951
0.4803
0.46059
0.4803
0.44951
0.46552
0.45443
0.49015
0.46552
0.5
0.49015
0.51478
0.50985
0.53448
0.51478
0.52463
0.5
0.49015
0.5
0.45443
0.46552
0.41995
0.43473
0.39532
0.4298
0.39039
0.40517
0.38054
0.4101
0.38547
0.40517
0.38547
0.41995
0.38547
0.41502
0.38547
0.41995
0.39039
0.42488
0.39532
0.42488
0.4298
0.40025
0.41995
0.39532
0.43966
0.39532
0.36946
0.3399
0.34975
0.31527
0.34975
0.36453
0.41502
0.39532
0.4298
0.40025
0.44458
0.41502
0.44458
0.38054
0.44458
0.32512
0.1798
0.019704
-0.060345
0.089901
0.25493
0.36946
0.45443
0.49015
0.4803
0.5197
0.49015
0.51478
0.4803
0.51478
0.49015
0.51478
0.49015
0.53941
0.50493
0.53448
0.49507
0.54557
0.52463
0.57512
0.53448
0.58005
0.53448
0.57512
0.52956
0.55049
0.50493
0.48522
0.50985
0.4298
0.4803
0.4101
0.45443
0.40025
0.45443
0.40025
0.44951
0.36453
0.39039
0.3202
0.39039
0.33498
0.43966
0.36946
0.44951
0.39532
0.45443
0.40025
0.46552
0.4803
0.42488
0.48522
0.41995
0.49507
0.38547
0.43473
0.3399
0.4101
0.35961
0.46552
0.4298
0.51478
0.46552
0.52956
0.47044
0.53941
0.46552
0.53941
0.49507
0.47044
0.23522
0.16502
0.034483
0.28941
0.40517
0.57512
0.63054
0.60468
0.68473
0.63054
0.72537
0.65517
0.74507
0.6798
0.75493
0.70443
0.78448
0.73522
0.80542
0.75493
0.8399
0.78941
0.88054
0.82512
0.91502
0.84483
0.9298
0.85961
0.90517
0.8399
0.86946
0.80542
0.78448
0.84483
0.76478
0.8399
0.75493
0.82512
0.75493
0.8399
0.76478
0.83005
0.7697
0.83498
0.77463
0.84975
0.76478
0.84483
0.79557
0.86453
0.7697
0.83005
0.75985
0.8202
0.75985
0.81527
0.74507
0.70936
0.75493
0.64532
0.70443
0.63547
0.73522
0.68473
0.77463
0.70936
0.7697
0.71552
0.77463
0.70936
0.76478
0.71552
0.77956
0.53448
0.48522
0.27956
0.4101
0.49507
0.66995
0.72044
0.80049
0.80542
0.75
0.8202
0.74015
0.8202
0.73522
0.81034
0.72537
0.81034
0.73522
0.81034
0.75
0.81527
0.75493
0.83498
0.77463
0.85468
0.76478
0.84483
0.7697
0.83498
0.75
0.80542
0.72537
0.75493
0.68966
0.72044
0.66502
0.64532
0.69951
0.62438
0.69458
0.61946
0.6798
0.62438
0.6798
0.62438
0.6798
0.62438
0.6798
0.62438
0.68966
0.62438
0.67488
0.60961
0.6601
0.5899
0.65517
0.59975
0.61453
0.54557
0.56527
0.51478
0.49507
0.56034
0.52956
0.60468
0.55542
0.61453
0.55542
0.60961
0.55542
0.59483
0.53941
0.60961
0.50493
0.39039
0.20443
0.14039
0.13547
0.41502
0.46059
0.57512
0.53941
0.57512
0.52956
0.57512
0.53448
0.52956
0.58005
0.51478
0.5702
0.49015
0.55542
0.49507
0.55542
0.49507
0.53941
0.5
0.56527
0.51478
0.57512
0.51478
0.5702
0.49507
0.53941
0.46059
0.50493
0.42488
0.47044
0.40025
0.39532
0.43473
0.38054
0.42488
0.36453
0.41995
0.34975
0.41502
0.35468
0.41995
0.36453
0.41995
0.37562
0.4298
0.38054
0.43473
0.38054
0.43473
0.37562
0.4298
0.35961
0.41502
0.35961
0.38547
0.31527
0.34483
0.28941
0.28448
0.34483
0.3202
0.39532
0.35961
0.4101
0.35961
0.41995
0.35468
0.40517
0.35468
0.42488
0.3399
0.2303
0.070197
0.0098522
0.0049261
0.26478
0.31034
0.43473
0.40517
0.46059
0.4101
0.45443
0.46059
0.42488
0.46059
0.41995
0.46552
0.41995
0.47044
0.43473
0.48522
0.43473
0.48522
0.44951
0.49507
0.46059
0.49507
0.44951
0.4803
0.41995
0.44951
0.38547
0.41502
0.34483
0.37562
0.3202
0.3399
0.28448
0.31034
0.2697
0.25985
0.29557
0.25
0.30542
0.26478
0.31034
0.25985
0.27463
0.21552
0.2697
0.22537
0.25493
0.24015
0.28448
0.21552
0.24507
0.22537
0.2697
0.25985
0.35468
0.27463
0.18966
0.094828
0.14532
0.17488
0.23522
0.27463
0.42488
0.46552
0.5
0.42488
0.56034
0.68966
0.18966
-0.12931
-0.12931
-0.12931
-0.12931
-0.12931
-0.12931
-0.12931
0.055419
0.25493
0.36946
0.4803
0.45443
0.47537
0.42488
0.43966
0.40025
0.41502
0.38547
0.40517
0.41502
0.38054
0.41502
0.36946
0.40517
0.38054
0.41995
0.40025
0.43966
0.42488
0.46059
0.42488
0.45443
0.4101
0.42488
0.36453
0.37562
0.3202
0.33498
0.29557
0.30542
0.27956
0.29557
0.2697
0.28941
0.30049
0.2697
0.30542
0.2697
0.31034
0.27956
0.31034
0.28448
0.31527
0.28941
0.31527
0.27956
0.31527
0.27956
0.31527
0.27956
0.31527
0.28448
0.27956
0.24015
0.24507
0.20443
0.23522
0.25
0.28941
0.31034
0.29557
0.33498
0.30049
0.33005
0.30049
0.33005
0.28941
0.34483
0.17488
0.034483
-0.12438
-0.12931
0.045567
0.21552
0.29557
0.38547
0.36946
0.40517
0.38054
0.4101
0.38547
0.4101
0.39039
0.38547
0.41502
0.39039
0.41995
0.39532
0.4298
0.4101
0.44458
0.42488
0.46552
0.44951
0.47537
0.44951
0.46552
0.43473
0.44458
0.39532
0.40025
0.34483
0.35468
0.31034
0.32512
0.29557
0.31527
0.29557
0.3202
0.32512
0.30049
0.33498
0.30542
0.34483
0.31034
0.34975
0.3202
0.34975
0.3202
0.34483
0.3202
0.34483
0.31527
0.34483
0.31527
0.34975
0.29557
0.31034
0.25985
0.27463
0.24015
0.28448
0.30049
0.3399
0.33005
0.35468
0.35961
0.33005
0.36453
0.33005
0.35961
0.32512
0.38054
0.14532
0.029557
-0.10961
0.0098522
0.1601
0.31034
0.35961
0.41995
0.40025
0.4298
0.4101
0.43966
0.4101
0.43473
0.4101
0.40517
0.43473
0.4101
0.43966
0.41502
0.44951
0.42488
0.46552
0.43966
0.48522
0.46552
0.49015
0.46552
0.48522
0.43966
0.45443
0.4101
0.41995
0.37562
0.39532
0.34975
0.38054
0.34483
0.36946
0.3399
0.36453
0.33498
0.33005
0.36453
0.33498
0.36946
0.34483
0.38054
0.34483
0.37562
0.34483
0.36946
0.34483
0.36946
0.34483
0.36946
0.34975
0.38547
0.32512
0.34483
0.28941
0.30049
0.2697
0.3202
0.32512
0.36946
0.35961
0.38054
0.35961
0.35468
0.39039
0.35468
0.36946
0.37562
0.29557
0.10468
-0.0098522
-0.12438
0.075123
0.20443
0.34975
0.38547
0.44458
0.41995
0.44951
0.41995
0.44951
0.41995
0.44951
0.41995
0.44458
0.42488
0.41995
0.44951
0.4298
0.46552
0.44458
0.48522
0.46552
0.50493
0.48522
0.51478
0.48522
0.50985
0.46552
0.47044
0.41995
0.4298
0.38547
0.40025
0.35961
0.39039
0.34975
0.37562
0.34975
0.38054
0.35961
0.35468
0.38547
0.35961
0.38547
0.35961
0.39532
0.36946
0.40025
0.36946
0.40025
0.36946
0.39039
0.36453
0.39039
0.36453
0.40025
0.37562
0.38054
0.32512
0.34483
0.28941
0.31527
0.30542
0.36453
0.37562
0.40025
0.38547
0.37562
0.40025
0.37562
0.41502
0.36453
0.4101
0.30049
0.13054
-0.0049261
-0.080049
0.075123
0.25
0.34975
0.44458
0.44951
0.48522
0.44951
0.48522
0.45443
0.49015
0.46552
0.49015
0.46552
0.5
0.4803
0.50493
0.51478
0.4803
0.52463
0.50493
0.54557
0.52463
0.56034
0.53448
0.56034
0.52463
0.53448
0.49015
0.5
0.44458
0.44951
0.40025
0.41995
0.37562
0.40025
0.36946
0.40025
0.38054
0.4101
0.38547
0.4101
0.41995
0.39039
0.42488
0.40025
0.4298
0.39532
0.42488
0.39039
0.4101
0.39039
0.41502
0.38054
0.4101
0.36946
0.38054
0.33498
0.34483
0.30049
0.3399
0.34483
0.39532
0.38547
0.41502
0.39532
0.41502
0.41995
0.39532
0.42488
0.38547
0.44458
0.2697
0.12562
-0.014778
-0.050493
0.16502
0.3202
0.40517
0.47044
0.46059
0.49507
0.46552
0.5
0.47044
0.50493
0.47044
0.50493
0.47537
0.50493
0.48522
0.50493
0.49015
0.5197
0.52956
0.50493
0.55049
0.53448
0.5702
0.53448
0.56034
0.51478
0.52956
0.4803
0.49015
0.43473
0.44951
0.4101
0.4298
0.39039
0.41502
0.37562
0.4101
0.38547
0.41502
0.39532
0.42488
0.4101
0.40517
0.43473
0.40517
0.43966
0.4101
0.43966
0.40517
0.43473
0.40517
0.42488
0.40025
0.43473
0.37562
0.38547
0.3399
0.34975
0.31527
0.37562
0.36946
0.41995
0.39532
0.4298
0.40025
0.42488
0.40025
0.39532
0.41502
0.43473
0.35468
0.18473
0.045567
-0.055419
0.12562
0.27463
0.40025
0.44458
0.49015
0.46552
0.49507
0.46552
0.49507
0.46552
0.49507
0.46552
0.5
0.47044
0.50493
0.4803
0.50985
0.49015
0.5197
0.50985
0.53448
0.54557
0.52956
0.56034
0.52956
0.55049
0.50985
0.5197
0.47537
0.49015
0.43966
0.44458
0.41502
0.4298
0.39532
0.41995
0.38547
0.41995
0.39039
0.41502
0.39039
0.41502
0.39532
0.39039
0.41502
0.39039
0.41502
0.38547
0.41995
0.39039
0.41995
0.38547
0.41502
0.38054
0.4101
0.37562
0.38054
0.33005
0.34483
0.30049
0.34483
0.3399
0.39039
0.38054
0.41502
0.38547
0.41502
0.39532
0.41502
0.38054
0.37562
0.4298
0.2303
0.080049
-0.065271
-0.075123
0.17488
0.3202
0.40517
0.47044
0.46059
0.49015
0.46552
0.5
0.47044
0.5
0.47044
0.50985
0.4803
0.50985
0.48522
0.5197
0.49507
0.52956
0.51478
0.54557
0.53448
0.56034
0.5702
0.53941
0.56034
0.51478
0.53448
0.4803
0.49015
0.4298
0.44458
0.40025
0.41502
0.38547
0.41502
0.38054
0.4101
0.38547
0.41502
0.39039
0.41995
0.39532
0.42488
0.40517
0.42488
0.4298
0.40025
0.4298
0.40025
0.4298
0.4101
0.43966
0.40517
0.41995
0.39039
0.39532
0.3399
0.34975
0.31034
0.34975
0.34483
0.40025
0.38547
0.42488
0.39532
0.42488
0.40025
0.42488
0.39039
0.43473
0.43966
0.21059
0.065271
-0.065271
0.029557
0.20443
0.3399
0.4298
0.4803
0.47044
0.50493
0.48522
0.50493
0.4803
0.51478
0.48522
0.51478
0.49015
0.5197
0.5
0.52463
0.51478
0.55049
0.53448
0.56527
0.55542
0.58005
0.58498
0.55542
0.5702
0.52956
0.53941
0.49015
0.5
0.44951
0.46059
0.41502
0.43473
0.40025
0.42488
0.39532
0.4298
0.40025
0.4298
0.40517
0.43966
0.41502
0.43966
0.41995
0.43966
0.44458
0.41995
0.44458
0.4101
0.44458
0.4101
0.43473
0.40517
0.43966
0.38547
0.39532
0.34975
0.35961
0.33005
0.38054
0.37562
0.4298
0.4101
0.44458
0.41995
0.44458
0.41995
0.43966
0.41502
0.46059
0.3202
0.1601
0.0098522
-0.065271
0.13547
0.28448
0.40517
0.46552
0.5
0.49015
0.51478
0.49015
0.5197
0.49015
0.5197
0.49015
0.5197
0.49015
0.52956
0.50493
0.53448
0.51478
0.55542
0.53448
0.5702
0.55542
0.58005
0.58498
0.55542
0.5702
0.52463
0.53448
0.48522
0.49015
0.44458
0.46059
0.41995
0.43966
0.4101
0.4298
0.39532
0.4298
0.40517
0.43966
0.4101
0.44458
0.41995
0.44458
0.41995
0.44458
0.41502
0.44458
0.44951
0.41995
0.44951
0.41995
0.44458
0.41995
0.44458
0.39039
0.40025
0.34975
0.36453
0.34975
0.40517
0.39532
0.43966
0.41502
0.44951
0.41995
0.44458
0.41502
0.43473
0.42488
0.44951
0.25493
0.13054
-0.024631
-0.065271
0.21552
0.35961
0.43966
0.4803
0.50985
0.4803
0.51478
0.4803
0.50985
0.48522
0.50985
0.48522
0.50985
0.4803
0.51478
0.49015
0.52463
0.50493
0.53941
0.5197
0.55542
0.53941
0.5702
0.55049
0.56034
0.52956
0.51478
0.52956
0.4803
0.49015
0.44458
0.46059
0.41995
0.43966
0.40517
0.42488
0.40025
0.42488
0.39532
0.4298
0.39532
0.4298
0.40025
0.43473
0.40517
0.43473
0.4101
0.43966
0.41502
0.4101
0.43473
0.4101
0.43473
0.40025
0.44458
0.39532
0.40517
0.35468
0.36453
0.33005
0.36946
0.36453
0.41995
0.4101
0.43966
0.4101
0.44458
0.4101
0.43966
0.40025
0.45443
0.39039
0.2303
0.060345
-0.050493
0.050493
0.25
0.36453
0.44951
0.48522
0.4803
0.51478
0.49015
0.51478
0.48522
0.51478
0.48522
0.5197
0.49015
0.52463
0.49507
0.53448
0.50493
0.54557
0.51478
0.56034
0.54557
0.58005
0.55542
0.5702
0.54557
0.53448
0.53941
0.49507
0.50985
0.45443
0.47537
0.4298
0.45443
0.41502
0.43966
0.4101
0.4298
0.40025
0.42488
0.40025
0.43966
0.4101
0.44458
0.41502
0.44458
0.41995
0.43966
0.41502
0.43473
0.41502
0.4298
0.43473
0.40025
0.43966
0.40517
0.4101
0.35468
0.36946
0.32512
0.35961
0.35468
0.41995
0.40025
0.4298
0.40517
0.43473
0.40517
0.43966
0.39532
0.44458
0.44951
0.25985
0.084975
-0.029557
-0.065271
0.20443
0.32512
0.4298
0.47044
0.46552
0.5
0.47044
0.50493
0.46552
0.5
0.47537
0.49507
0.47537
0.50493
0.47537
0.51478
0.48522
0.5197
0.5
0.53941
0.52463
0.56034
0.53941
0.55542
0.52463
0.53448
0.50493
0.48522
0.49015
0.44458
0.46059
0.41502
0.43473
0.39532
0.41995
0.38547
0.4101
0.38547
0.4101
0.38547
0.41995
0.39532
0.42488
0.39532
0.4298
0.40025
0.4298
0.40025
0.42488
0.40025
0.42488
0.40517
0.39532
0.41995
0.39532
0.4298
0.36946
0.38547
0.33005
0.34483
0.31034
0.37562
0.36453
0.41502
0.40025
0.42488
0.39532
0.4298
0.40025
0.41995
0.40517
0.4298
0.23522
0.10961
-0.060345
-0.099754
0.16995
0.3202
0.41502
0.47537
0.5
0.4803
0.51478
0.48522
0.51478
0.48522
0.50985
0.48522
0.51478
0.49015
0.5197
0.49507
0.53448
0.51478
0.55542
0.53448
0.58005
0.56034
0.5899
0.56034
0.58005
0.53941
0.52956
0.53448
0.48522
0.49015
0.44458
0.45443
0.41995
0.43966
0.40025
0.42488
0.40025
0.42488
0.40025
0.43473
0.40517
0.44458
0.41502
0.44458
0.41995
0.44458
0.41995
0.43966
0.41502
0.43473
0.4101
0.4298
0.4101
0.39532
0.4298
0.40025
0.37562
0.34975
0.36946
0.32512
0.35468
0.34975
0.41502
0.39532
0.4298
0.40517
0.43966
0.4101
0.44458
0.39532
0.45443
0.37562
0.21552
0.045567
-0.060345
0.04064
0.24015
0.35961
0.45443
0.49015
0.48522
0.51478
0.49015
0.5197
0.49015
0.52463
0.49015
0.52463
0.50493
0.52956
0.50493
0.53448
0.51478
0.55542
0.53448
0.57512
0.55542
0.5899
0.56527
0.58498
0.54557
0.55049
0.5197
0.50493
0.50985
0.45443
0.46552
0.41995
0.44458
0.40025
0.4298
0.39532
0.41995
0.39532
0.42488
0.40025
0.43473
0.40517
0.44458
0.41502
0.44458
0.41995
0.44458
0.41502
0.43966
0.41502
0.43966
0.41502
0.40517
0.43473
0.4101
0.42488
0.36453
0.37562
0.33005
0.35468
0.3399
0.4101
0.39532
0.43966
0.41502
0.43966
0.4101
0.43966
0.40025
0.43473
0.43966
0.34483
0.13547
0.024631
-0.075123
0.15517
0.28448
0.41995
0.46552
0.49507
0.51478
0.4803
0.51478
0.48522
0.51478
0.4803
0.50985
0.48522
0.50985
0.49015
0.5197
0.49507
0.53448
0.51478
0.55049
0.53448
0.5702
0.55049
0.58005
0.55049
0.56034
0.52463
0.52956
0.49015
0.47044
0.48522
0.43966
0.46059
0.41995
0.43966
0.40517
0.42488
0.39532
0.42488
0.40517
0.4298
0.4101
0.43966
0.41502
0.44458
0.41502
0.44951
0.41995
0.44458
0.41502
0.43966
0.41502
0.4298
0.43473
0.4101
0.43966
0.38054
0.39039
0.33498
0.35961
0.32512
0.38547
0.38054
0.43473
0.41502
0.43966
0.41502
0.43966
0.4101
0.43473
0.41502
0.44951
0.26478
0.13547
-0.034483
-0.080049
0.18473
0.34483
0.41995
0.4803
0.50493
0.4803
0.51478
0.4803
0.50985
0.47537
0.50493
0.47537
0.50985
0.48522
0.50985
0.49015
0.5197
0.49507
0.53941
0.51478
0.56034
0.53941
0.57512
0.54557
0.56034
0.52463
0.53448
0.5
0.48522
0.49015
0.44458
0.46059
0.41995
0.44458
0.40025
0.4298
0.39532
0.41995
0.39039
0.41502
0.38547
0.41502
0.39039
0.42488
0.39532
0.4298
0.40025
0.43473
0.40517
0.43473
0.40517
0.43473
0.40517
0.40025
0.42488
0.40517
0.41995
0.36453
0.37562
0.33005
0.35468
0.33005
0.39532
0.39039
0.42488
0.40517
0.43473
0.40517
0.43966
0.40517
0.43473
0.4298
0.36946
0.15025
0.045567
-0.094828
0.10961
0.25985
0.40517
0.44951
0.49015
0.5
0.47044
0.50985
0.47537
0.50493
0.47537
0.50985
0.4803
0.50985
0.48522
0.51478
0.49507
0.52956
0.50985
0.54557
0.52463
0.56527
0.54557
0.57512
0.54557
0.56034
0.5197
0.52463
0.4803
0.46552
0.4803
0.43473
0.44951
0.40517
0.43473
0.39532
0.41995
0.39039
0.41502
0.39039
0.41502
0.39532
0.42488
0.40025
0.43473
0.40025
0.43966
0.40517
0.43473
0.40517
0.43473
0.4101
0.4298
0.40517
0.40025
0.43473
0.39532
0.40025
0.34975
0.35961
0.3202
0.36453
0.35468
0.41995
0.40517
0.43473
0.4101
0.43966
0.40517
0.43473
0.39532
0.46059
0.36946
0.20443
0.034483
-0.065271
0.050493
0.25493
0.36453
0.46059
0.49015
0.47537
0.51478
0.4803
0.50985
0.4803
0.50985
0.47537
0.50985
0.48522
0.50985
0.49015
0.5197
0.49507
0.53448
0.51478
0.55542
0.53448
0.57512
0.54557
0.56527
0.52956
0.54557
0.50493
0.49015
0.49507
0.44951
0.46552
0.41995
0.43966
0.40025
0.42488
0.39532
0.41995
0.39039
0.41502
0.39039
0.41502
0.39039
0.41995
0.39532
0.42488
0.40025
0.4298
0.40025
0.42488
0.40025
0.42488
0.40517
0.40025
0.41995
0.4298
0.39039
0.36946
0.38547
0.33498
0.35468
0.32512
0.38547
0.37562
0.41995
0.4101
0.43966
0.40517
0.43473
0.40025
0.41995
0.41502
0.43966
0.22044
0.099754
-0.065271
-0.084975
0.19458
0.35468
0.42488
0.4803
0.5
0.47044
0.50985
0.4803
0.51478
0.4803
0.50985
0.4803
0.50493
0.48522
0.50985
0.48522
0.52463
0.5
0.53941
0.51478
0.56034
0.53941
0.57512
0.53941
0.55542
0.5197
0.52463
0.49015
0.47537
