0.87647
0.88039
0.87647
0.87647
0.87647
0.88627
0.88039
0.88627
0.86667
0.88039
0.90196
0.8902
0.87647
0.8902
0.89608
0.90196
0.8902
0.8902
0.88627
0.89608
0.89608
0.88627
0.88039
0.88627
0.88627
0.88627
0.90196
0.90588
0.88627
0.88039
0.87647
0.88039
0.8902
0.88039
0.85098
0.81569
0.83137
0.78039
0.76667
0.7549
0.75098
0.77059
0.79608
0.81176
0.87059
0.91176
0.90588
0.90588
0.92157
0.92157
0.91569
0.91569
0.92549
0.85686
0.6549
0.23922
-0.10588
0.23922
0.92549
1.1314
1.0373
0.96078
0.94118
0.93725
0.94118
0.95686
0.95686
0.94706
0.93137
0.93137
0.93725
0.94706
0.91569
0.91176
0.88039
0.87059
0.89608
0.92549
0.90588
0.88627
0.88627
0.88627
0.86667
0.86667
0.86078
0.8451
0.85686
0.83137
0.81569
0.81176
0.82157
0.82549
0.83137
0.84118
0.87059
0.88039
0.89608
0.88039
0.89608
0.89608
0.90196
0.87647
0.87059
0.90588
0.91569
0.92157
0.90196
0.88627
0.87059
0.88627
0.89608
0.90588
0.88627
0.87647
0.88627
0.8902
0.8902
0.90196
0.90588
0.88627
0.87059
0.89608
0.8902
0.90196
0.8902
0.88039
0.88627
0.88039
0.90588
0.90588
0.89608
0.88627
0.8902
0.88039
0.88627
0.88627
0.86667
0.83529
0.82157
0.81176
0.77059
0.77059
0.76667
0.76667
0.78627
0.80588
0.83529
0.86667
0.90196
0.91569
0.93137
0.91176
0.90588
0.92157
0.93725
0.94706
0.86667
0.6549
0.2549
-0.092157
0.2451
0.92157
1.1059
1.0373
0.96078
0.95686
0.95686
0.96078
0.94706
0.95686
0.95686
0.95686
0.93137
0.93137
0.93725
0.92549
0.91176
0.89608
0.91569
0.92157
0.90196
0.8902
0.90196
0.88627
0.8902
0.88627
0.87647
0.85686
0.8451
0.84118
0.8451
0.81176
0.80588
0.81569
0.83529
0.85098
0.85686
0.87647
0.88627
0.88627
0.88039
0.88627
0.90588
0.89608
0.88627
0.89608
0.91176
0.90588
0.8902
0.88627
0.88039
0.88039
0.8902
0.89608
0.88627
0.8902
0.8902
0.88039
0.89608
0.90588
0.90196
0.8902
0.88627
0.8902
0.88627
0.88627
0.89608
0.90588
0.90196
0.90196
0.8902
0.8902
0.89608
0.8902
0.90196
0.8902
0.87647
0.86667
0.86078
0.88627
0.89608
0.88039
0.86078
0.83137
0.83529
0.80588
0.76078
0.7451
0.7549
0.76078
0.78627
0.80588
0.84118
0.88039
0.91569
0.92549
0.91569
0.92549
0.91176
0.91176
0.93137
0.92549
0.83529
0.58431
0.16471
-0.086275
0.37059
1.0275
1.1275
0.98627
0.94706
0.96078
0.95098
0.95098
0.95098
0.94118
0.93137
0.93137
0.93137
0.93725
0.90588
0.90196
0.91569
0.91176
0.92157
0.92549
0.89608
0.8902
0.89608
0.88627
0.86667
0.85098
0.87059
0.86078
0.83529
0.82157
0.81569
0.81176
0.7902
0.8
0.82549
0.83529
0.8451
0.86667
0.86078
0.88039
0.88627
0.88627
0.90196
0.89608
0.88627
0.88627
0.88627
0.88627
0.88039
0.88627
0.88039
0.90196
0.90588
0.88627
0.8902
0.90196
0.88627
0.88627
0.89608
0.88627
0.88627
0.90588
0.88039
0.87647
0.90588
0.88039
0.89608
0.90588
0.90196
0.89608
0.90196
0.89608
0.8902
0.87059
0.88627
0.8902
0.88627
0.87647
0.90196
0.8902
0.8902
0.90588
0.89608
0.88627
0.88627
0.88627
0.86667
0.8451
0.81176
0.8
0.7902
0.77647
0.77059
0.7549
0.77059
0.81569
0.85686
0.8902
0.90588
0.90588
0.91176
0.93137
0.93137
0.91176
0.90588
0.93137
0.82157
0.53529
0.068627
-0.092157
0.52941
1.0824
1.1412
1.002
0.95686
0.94118
0.96078
0.96078
0.94118
0.91569
0.94118
0.95686
0.94118
0.92549
0.93137
0.92157
0.90196
0.8902
0.91176
0.90588
0.90588
0.91176
0.89608
0.86078
0.87647
0.88627
0.88627
0.87059
0.85098
0.82549
0.83137
0.83529
0.81569
0.81176
0.82157
0.81569
0.85098
0.8902
0.88627
0.89608
0.90196
0.88627
0.88039
0.8902
0.89608
0.88627
0.88627
0.90196
0.89608
0.88039
0.8902
0.90196
0.88627
0.88627
0.8902
0.89608
0.8902
0.88627
0.90588
0.8902
0.88627
0.90196
0.90588
0.88627
0.88039
0.90588
0.91176
0.88627
0.90196
0.89608
0.88627
0.88627
0.90588
0.88039
0.88039
0.86078
0.90196
0.91176
0.90588
0.8902
0.88039
0.88039
0.88627
0.86078
0.83529
0.82157
0.83529
0.79608
0.76667
0.76078
0.77647
0.78627
0.80588
0.81176
0.84118
0.8902
0.90588
0.91176
0.90588
0.92157
0.91569
0.92549
0.93137
0.86078
0.62549
0.21961
-0.12157
0.25882
0.93137
1.1373
1.0275
0.97647
0.93725
0.92157
0.95686
0.96667
0.95098
0.94706
0.92549
0.90196
0.93137
0.95098
0.93725
0.93137
0.90588
0.88627
0.90588
0.91176
0.92157
0.91176
0.90588
0.88627
0.86078
0.85686
0.87647
0.88039
0.85686
0.83529
0.82157
0.8
0.82549
0.83529
0.84118
0.85098
0.84118
0.88039
0.88627
0.88627
0.89608
0.89608
0.90588
0.88627
0.8902
0.8902
0.90196
0.90196
0.88039
0.88627
0.8902
0.90196
0.88627
0.88039
0.88627
0.88039
0.86078
0.8902
0.90588
0.90196
0.89608
0.8902
0.90196
0.88627
0.89608
0.90588
0.90196
0.88039
0.86667
0.88039
0.91176
0.8902
0.89608
0.8902
0.89608
0.89608
0.8902
0.88627
0.88627
0.85686
0.83137
0.82157
0.83529
0.80588
0.76667
0.7549
0.76078
0.76667
0.7902
0.81176
0.84118
0.88627
0.90588
0.90588
0.90196
0.92549
0.92157
0.91569
0.93137
0.89608
0.78627
0.48431
0.017647
-0.10196
0.62549
1.1118
1.1176
0.97059
0.95686
0.95098
0.94706
0.95686
0.96078
0.94118
0.93725
0.94706
0.95098
0.92549
0.90588
0.90196
0.92157
0.93137
0.92157
0.90588
0.90196
0.88627
0.89608
0.90588
0.8902
0.88039
0.85686
0.85098
0.83137
0.81569
0.84118
0.83137
0.82157
0.81569
0.82157
0.83529
0.86667
0.88627
0.88039
0.89608
0.8902
0.88627
0.88039
0.90196
0.8902
0.91569
0.90196
0.90196
0.88627
0.89608
0.90588
0.90196
0.88627
0.88627
0.90196
0.88039
0.86667
0.92549
0.92157
0.90196
0.8902
0.88627
0.89608
0.90588
0.90196
0.91176
0.88627
0.88627
0.8902
0.88627
0.90588
0.91176
0.8902
0.88627
0.90588
0.90196
0.90588
0.90588
0.89608
0.87647
0.84118
0.82549
0.8451
0.82157
0.76667
0.76078
0.7549
0.77059
0.78627
0.80588
0.84118
0.88039
0.91176
0.90588
0.93137
0.92157
0.90588
0.91176
0.94118
0.95098
0.85686
0.60588
0.16863
-0.092157
0.4098
1.051
1.1412
0.98627
0.94118
0.93725
0.94706
0.95686
0.96667
0.94706
0.95098
0.95686
0.95098
0.92549
0.92549
0.91569
0.90588
0.92157
0.91569
0.8902
0.87647
0.88627
0.90588
0.90196
0.8902
0.86667
0.85098
0.8451
0.86078
0.84118
0.81176
0.78627
0.76667
0.81569
0.84118
0.8451
0.85098
0.86078
0.88039
0.87059
0.8902
0.90588
0.90196
0.90588
0.88627
0.90196
0.88627
0.89608
0.91176
0.91569
0.90196
0.88627
0.88039
0.88627
0.8902
0.88627
0.88627
0.91176
0.90588
0.90588
0.91176
0.91176
0.90588
0.88627
0.8902
0.88627
0.89608
0.88039
0.90196
0.92157
0.89608
0.88627
0.90196
0.90196
0.90588
0.8902
0.88627
0.88627
0.87059
0.85098
0.81569
0.83529
0.8451
0.8
0.7549
0.75098
0.76667
0.77059
0.8
0.83529
0.86667
0.90196
0.92157
0.93137
0.94118
0.93137
0.92549
0.93725
0.94118
0.90196
0.73137
0.37451
-0.041176
-0.056863
0.81569
1.1373
1.0471
0.95686
0.94118
0.95686
0.95686
0.93137
0.93137
0.95686
0.95686
0.94118
0.93137
0.90196
0.8902
0.90588
0.91176
0.90588
0.90588
0.91176
0.8902
0.88039
0.87647
0.88627
0.87647
0.88039
0.87647
0.85098
0.83529
0.80588
0.81569
0.82549
0.82157
0.81569
0.80588
0.81176
0.85686
0.88627
0.88039
0.86078
0.88039
0.90588
0.89608
0.89608
0.88627
0.88039
0.87647
0.8902
0.89608
0.88627
0.88627
0.88627
0.8902
0.87647
0.88627
0.8902
0.88627
0.88627
0.90196
0.89608
0.90196
0.88627
0.90588
0.87059
0.88039
0.90196
0.90588
0.89608
0.8902
0.8902
0.90196
0.90588
0.88627
0.88039
0.86667
0.86078
0.90588
0.87059
0.84118
0.8451
0.83529
0.82157
0.78039
0.76078
0.76667
0.76667
0.78039
0.80588
0.8451
0.88627
0.91569
0.91176
0.90588
0.90588
0.92157
0.93137
0.94118
0.91176
0.81176
0.5098
0.052941
-0.10196
0.52549
1.0667
1.1373
1.002
0.95098
0.95686
0.94118
0.95098
0.95686
0.93137
0.95098
0.94118
0.92549
0.91569
0.93137
0.92157
0.90588
0.90196
0.91176
0.88627
0.90196
0.90588
0.87059
0.89608
0.90588
0.90196
0.88039
0.86078
0.86078
0.8451
0.83529
0.82549
0.82549
0.81569
0.81569
0.84118
0.86667
0.89608
0.88627
0.89608
0.90196
0.88627
0.8902
0.88627
0.90588
0.90588
0.91569
0.90196
0.88627
0.86667
0.89608
0.90588
0.89608
0.8902
0.88627
0.88039
0.88039
0.90588
0.90588
0.89608
0.8902
0.90588
0.90588
0.91176
0.90588
0.8902
0.90196
0.90588
0.90196
0.89608
0.90588
0.88627
0.90196
0.91569
0.90196
0.89608
0.90588
0.8902
0.87059
0.86667
0.8451
0.8451
0.82157
0.76078
0.7451
0.76667
0.7549
0.79608
0.83137
0.85686
0.89608
0.92549
0.91176
0.92549
0.92549
0.93137
0.93137
0.95098
0.92157
0.77647
0.43922
-0.0058824
-0.10196
0.68039
1.1275
1.0667
0.96667
0.95098
0.96078
0.97059
0.96667
0.96078
0.95686
0.96667
0.95098
0.92549
0.92157
0.91569
0.93137
0.93725
0.93137
0.92157
0.91176
0.89608
0.88627
0.89608
0.90588
0.89608
0.87059
0.85686
0.85686
0.85098
0.85686
0.82157
0.81176
0.82549
0.81176
0.82157
0.8451
0.86078
0.87647
0.88627
0.88039
0.8902
0.90588
0.91569
0.90196
0.88039
0.88627
0.8902
0.90588
0.8902
0.87059
0.88039
0.90588
0.91176
0.8902
0.8902
0.8902
0.8902
0.88627
0.88627
0.88627
0.88627
0.90196
0.90196
0.88627
0.89608
0.90196
0.90196
0.90196
0.89608
0.8902
0.88627
0.8902
0.8902
0.89608
0.88627
0.88627
0.88039
0.86667
0.85686
0.82157
0.82549
0.78039
0.7549
0.76667
0.7549
0.75098
0.8
0.82157
0.85686
0.88627
0.91176
0.90588
0.91569
0.91176
0.92549
0.92157
0.94706
0.93137
0.78039
0.44902
0.0078431
-0.086275
0.7
1.1176
1.051
0.96078
0.93137
0.94118
0.93137
0.94118
0.95686
0.93137
0.93137
0.93137
0.92549
0.92157
0.90588
0.91176
0.91569
0.90588
0.88627
0.87647
0.86667
0.87647
0.88627
0.88627
0.86078
0.85098
0.86078
0.8451
0.82549
0.82157
0.81176
0.79608
0.80588
0.80588
0.80588
0.82549
0.85098
0.87647
0.88627
0.88039
0.88627
0.8902
0.88627
0.8902
0.88627
0.88039
0.87059
0.88627
0.86667
0.87059
0.88627
0.86667
0.87647
0.90196
0.89608
0.88039
0.88627
0.88627
0.88627
0.88627
0.88039
0.88627
0.8902
0.88627
0.88627
0.88627
0.8902
0.89608
0.88627
0.8902
0.88627
0.88627
0.88627
0.8902
0.88627
0.86667
0.86078
0.89608
0.90196
0.88039
0.8451
0.83137
0.81569
0.81176
0.77059
0.7549
0.75098
0.74118
0.76078
0.80588
0.83137
0.85686
0.88627
0.8902
0.90588
0.91569
0.90588
0.92157
0.93137
0.91176
0.8451
0.64118
0.2
-0.10196
0.29412
0.98235
1.1275
1.0059
0.95098
0.93137
0.94118
0.94706
0.93725
0.94118
0.95098
0.93725
0.92157
0.91176
0.92549
0.92157
0.92157
0.91176
0.90588
0.89608
0.88627
0.8902
0.88627
0.87059
0.85098
0.86078
0.86667
0.85686
0.83529
0.83137
0.83529
0.81176
0.81176
0.81176
0.82157
0.82549
0.83529
0.86078
0.87059
0.86078
0.88627
0.90196
0.89608
0.87647
0.8902
0.8902
0.88627
0.8902
0.88627
0.88627
0.88627
0.88627
0.88039
0.87647
0.87059
0.88627
0.88039
0.88627
0.88627
0.87647
0.87059
0.89608
0.90196
0.88627
0.88627
0.89608
0.88627
0.87647
0.88627
0.8902
0.87647
0.8902
0.89608
0.88039
0.87647
0.87059
0.85098
0.86078
0.87647
0.86078
0.85098
0.83137
0.83529
0.7902
0.75098
0.73529
0.75098
0.7451
0.78627
0.80588
0.85098
0.89608
0.90588
0.88627
0.89608
0.92157
0.92549
0.92157
0.91569
0.86667
0.70588
0.31373
-0.10196
0.11373
0.81569
1.1314
1.051
0.96078
0.94118
0.95098
0.93137
0.93137
0.93137
0.90588
0.90196
0.93137
0.91569
0.90588
0.90196
0.90196
0.88627
0.89608
0.90588
0.88627
0.88039
0.88039
0.88039
0.86667
0.86078
0.86667
0.85098
0.85686
0.82549
0.83137
0.82157
0.81176
0.81569
0.81176
0.83529
0.85686
0.86078
0.86667
0.88039
0.88627
0.88039
0.88627
0.8902
0.88627
0.88627
0.90196
0.88039
0.85098
0.8451
0.86078
0.85686
0.85098
0.8902
0.89608
0.85686
0.87647
0.89608
0.89608
0.89608
0.8902
0.90196
0.91176
0.8902
0.90588
0.90196
0.89608
0.90196
0.91176
0.89608
0.90588
0.89608
0.8902
0.90588
0.91569
0.93137
0.90588
0.88627
0.86078
0.85686
0.84118
0.8
0.77059
0.76667
0.76667
0.78039
0.81569
0.83529
0.85098
0.92549
0.94706
0.95098
0.93137
0.93137
0.93725
0.94118
0.94706
0.86078
0.64118
0.20392
-0.12157
0.27451
0.97647
1.1275
1.0157
0.96667
0.95098
0.94706
0.95686
0.95686
0.94706
0.93137
0.93725
0.93137
0.93725
0.93137
0.92549
0.91569
0.92157
0.91569
0.92157
0.89608
0.8902
0.89608
0.88627
0.88627
0.86667
0.8451
0.84118
0.83529
0.8451
0.82157
0.81176
0.81176
0.81176
0.82157
0.81569
0.85686
0.87059
0.88627
0.88039
0.88627
0.88627
0.88627
0.88627
0.88039
0.89608
0.88627
0.90196
0.8902
0.88627
0.87059
0.88039
0.89608
0.8902
0.89608
0.90196
0.8902
0.88627
0.88039
0.88627
0.88039
0.8902
0.89608
0.88039
0.88039
0.89608
0.88627
0.8902
0.88039
0.87647
0.89608
0.8902
0.88627
0.87059
0.86667
0.88627
0.86667
0.86078
0.84118
0.82157
0.83529
0.79608
0.7549
0.74118
0.75098
0.74118
0.7902
0.82157
0.85098
0.88627
0.90196
0.90196
0.91176
0.91569
0.90196
0.90588
0.92157
0.8902
0.72549
0.33922
-0.076471
-0.10588
0.78627
1.1314
1.0569
0.96667
0.93725
0.93725
0.93137
0.93725
0.93137
0.95098
0.92157
0.92549
0.90588
0.90196
0.89608
0.90196
0.89608
0.88627
0.88039
0.88627
0.88039
0.87059
0.87647
0.86667
0.87059
0.86078
0.84118
0.82549
0.81569
0.81176
0.80588
0.79608
0.80588
0.81569
0.83529
0.85686
0.86078
0.86667
0.87059
0.88039
0.88039
0.88627
0.88627
0.88627
0.88627
0.88627
0.8902
0.89608
0.88627
0.8902
0.88627
0.88627
0.88627
0.8902
0.89608
0.88627
0.8902
0.89608
0.88627
0.89608
0.90196
0.90588
0.90196
0.90588
0.89608
0.90196
0.90196
0.90196
0.90196
0.90588
0.90196
0.90196
0.90196
0.90196
0.90196
0.88039
0.87647
0.87059
0.85098
0.79608
0.78627
0.7902
0.7902
0.81569
0.83529
0.85686
0.89608
0.91569
0.92549
0.93137
0.93725
0.94118
0.93725
0.95098
0.92157
0.78627
0.50588
0.043137
-0.096078
0.5549
1.102
1.1412
1.002
0.95686
0.95098
0.95686
0.95686
0.94706
0.94118
0.94706
0.93725
0.94118
0.93137
0.93137
0.93137
0.91569
0.91176
0.91176
0.91176
0.91569
0.90588
0.90196
0.8902
0.89608
0.88627
0.88039
0.86667
0.8451
0.8451
0.83529
0.82549
0.82549
0.82549
0.83529
0.85686
0.86667
0.88039
0.87059
0.86078
0.89608
0.90588
0.90588
0.93725
0.93137
0.93137
0.92549
0.91569
0.91176
0.91569
0.91569
0.91176
0.90588
0.90588
0.90588
0.91176
0.90196
0.90196
0.90588
0.90588
0.91176
0.90196
0.91569
0.91176
0.90196
0.90588
0.90588
0.89608
0.8902
0.90196
0.90588
0.90588
0.8902
0.88627
0.87647
0.85098
0.85686
0.81176
0.7902
0.78039
0.78039
0.78627
0.81176
0.83529
0.86078
0.90196
0.91569
0.94118
0.94706
0.93725
0.93137
0.93137
0.94118
0.88627
0.6902
0.31373
-0.082353
0.15882
0.87647
1.1373
1.051
0.97647
0.94706
0.95098
0.95686
0.95686
0.94706
0.94118
0.94706
0.94118
0.93137
0.93137
0.93137
0.92157
0.90588
0.92157
0.92549
0.92157
0.91176
0.89608
0.8902
0.88627
0.88627
0.87647
0.86078
0.8451
0.83529
0.82549
0.81569
0.81176
0.81569
0.83137
0.85098
0.86078
0.87647
0.8902
0.89608
0.90588
0.88627
0.89608
0.92549
0.92157
0.91176
0.91569
0.90588
0.87647
0.86078
0.91176
0.92549
0.92157
0.91569
0.91569
0.91176
0.90588
0.90588
0.91176
0.90588
0.90588
0.91176
0.8902
0.88627
0.85686
0.83529
0.83137
0.95098
1.0157
0.98627
0.91569
0.86667
0.87059
0.6
0.3451
0.81569
0.99216
0.88627
0.7902
0.91569
0.94706
0.90588
0.87647
0.8451
0.86078
0.90196
0.92157
0.92549
0.94706
0.96078
0.81176
0.74118
0.87059
0.8902
0.76667
0.84118
0.61961
0.14902
0.039216
0.7549
1.1569
1.0765
0.98627
0.93137
0.8902
0.86078
0.95686
0.80588
0.92549
1.0412
1.0157
0.98235
0.95686
0.94118
0.94706
0.92157
0.77059
0.58431
0.8
0.92157
1.0725
1.0216
0.96667
0.90196
0.86667
0.85098
0.85098
0.81569
0.80588
0.7902
0.80588
0.7902
0.7902
0.82157
0.83137
0.8451
0.86078
0.82157
0.79608
0.87059
0.8902
0.7549
0.70588
0.99608
1.0373
0.96667
0.91569
0.92157
0.89608
0.88039
0.87647
0.88039
0.88627
0.8451
0.81569
0.90196
0.78039
0.4902
0.79608
1.0922
1.0373
0.99608
0.93725
0.94706
0.91569
0.90196
0.90588
0.89608
0.89608
0.90196
0.87059
0.83137
0.71569
0.43529
0.63529
1.0471
1.0725
0.92549
0.8451
0.8
0.7902
0.78039
0.81569
0.83529
0.85686
0.91176
0.91569
0.91176
0.90588
0.91569
0.90196
0.91176
0.92157
0.8
0.55098
0.19412
-0.082353
0.33529
1.0157
1.2471
1.0961
0.97059
0.91569
0.8
0.78039
0.84118
0.91176
1.0216
1.0275
0.97059
0.93725
0.92549
0.91176
0.89608
0.89608
0.86078
0.88039
0.88627
0.87647
0.83529
0.83137
0.8451
0.82549
0.7
0.76078
0.85686
0.83529
0.83529
0.81569
0.81569
0.81176
0.81176
0.83137
0.85686
0.85098
0.88039
0.7451
0.68627
0.7549
0.8451
1.0157
1.0569
0.98235
0.95686
0.93725
0.91176
0.91176
0.91569
0.89608
0.89608
0.90588
0.91176
0.88039
0.88627
0.8902
0.90196
0.8902
0.87647
0.87059
0.90196
0.91176
0.90588
0.89608
0.89608
0.90588
0.91176
0.8902
0.88039
0.83529
0.8451
0.83529
0.7902
0.73137
0.67647
0.65098
0.87647
0.90588
0.91176
0.92549
0.94118
0.95098
0.94706
0.93725
0.94118
0.92549
0.94118
0.91569
0.78627
0.46078
-0.041176
-0.21176
0.64118
1.1961
1.2431
1.0373
0.98235
0.97647
0.97647
0.94706
0.93137
0.93725
0.91176
0.83137
0.7902
0.79608
0.92157
1.0471
0.99608
0.96078
0.94118
0.92157
0.91176
0.90588
0.90588
0.89608
0.88039
0.88627
0.87647
0.8451
0.84118
0.67059
0.53922
0.72157
0.8902
0.97647
0.93137
0.90588
0.90588
0.92157
0.93137
0.89608
0.90196
0.8902
0.90588
0.8451
0.61569
0.5902
1.002
1.0412
0.99608
0.97059
0.94118
0.91176
0.88627
0.88039
0.88627
0.87059
0.83137
0.7098
0.6098
0.76078
0.98235
1.0608
1.0314
0.97059
0.94706
0.93137
0.90196
0.93137
0.88627
0.86667
0.85098
0.82549
0.76667
0.42941
0.40392
0.86078
0.89608
0.8902
0.93137
0.90588
0.92157
0.94118
0.94706
0.92157
0.93137
0.90588
0.8
0.6451
0.62549
0.81176
0.84118
0.20392
-0.0019608
0.51961
1.1373
1.202
1.0412
0.97647
0.98627
0.96667
0.87059
0.83529
0.34902
0.058824
0.91569
1.2882
1.2569
1.1922
1.0824
1.0157
0.99608
0.95098
0.92549
0.93725
0.89608
0.83137
0.4902
0.47451
0.60588
0.87647
0.95686
0.83137
1.1059
1.0314
0.91569
0.88039
0.86667
0.85686
0.86078
0.74118
0.69608
0.27843
0.13333
0.6
1.202
1.3373
1.2314
1.0725
0.99608
0.95098
0.91176
0.91569
0.91176
0.92549
0.93137
0.8451
0.52941
0.25882
0.90196
1.1275
1.0314
1.1216
1.0471
0.96667
0.94706
0.90196
0.91176
0.93725
0.95686
0.92549
0.90588
0.8902
0.80588
0.68039
0.33529
0.81569
0.90196
0.98627
1.0157
0.91569
0.86667
0.87059
0.86078
0.90196
0.95098
0.93137
0.94706
0.92549
0.70588
0.67647
0.98627
0.82157
1.0471
0.81176
0.34902
-0.041176
0.2549
0.97059
1.1725
1.0667
0.98627
0.94706
0.95686
0.96667
0.96667
0.95686
0.95686
0.90588
0.72549
0.7451
0.92157
1.0765
1.0275
0.98235
0.97059
0.91176
0.90196
0.90588
0.90196
0.8902
0.88627
0.87647
0.86667
0.85098
0.81569
0.68039
0.5098
0.4902
1.0118
0.97059
0.91176
0.8902
0.87647
0.90588
0.88039
0.88627
0.90588
0.91176
0.90588
0.90196
0.8902
0.89608
0.62549
0.37451
0.86078
1.1314
1.1373
1.0157
0.97059
0.93725
0.92157
0.90588
0.90588
0.93137
0.90588
0.91176
0.8902
0.90588
0.90588
0.90588
0.90196
0.87059
0.7
0.46471
0.78627
0.89608
1.0157
1.1176
1.0157
0.92157
0.87647
0.82157
0.7902
0.78627
0.79608
0.83529
0.85098
0.84118
0.80588
0.90196
0.7098
0.62941
1.0412
1.1176
0.99608
0.8902
1.0118
0.95686
0.69608
0.25882
-0.041176
0.35882
1.0569
1.1725
0.93137
0.8451
1.0275
1.0725
1.0471
1.0118
0.99216
0.97059
0.95686
0.94118
0.93725
0.93137
0.93137
0.91569
0.91176
0.89608
0.70588
0.48039
0.81569
1.1922
1.0922
0.98627
0.92157
0.8902
0.87059
0.85686
0.84118
0.83529
0.82157
0.80588
0.81176
0.83529
0.85686
0.88039
0.89608
0.90588
0.91176
0.92157
0.92549
0.93137
0.93137
0.93137
0.92157
0.91569
0.92157
0.87059
0.85686
0.93137
0.82157
0.81569
0.99608
0.97647
0.94706
0.92157
0.90588
0.90196
0.90588
0.90588
0.90588
0.90196
0.90588
0.90196
0.90588
0.90196
0.90588
0.90196
0.90196
0.89608
0.86667
0.77647
0.85686
0.89608
0.86667
0.87647
0.79608
0.76667
0.76078
0.76667
0.7902
0.81569
0.83529
0.88039
0.90588
0.91569
0.91569
0.91569
0.92157
0.93137
0.92549
0.93137
0.81176
0.5549
0.12353
-0.056863
0.4451
1.051
1.1176
0.96078
0.98235
0.98627
0.96078
0.95686
0.95098
0.94706
0.94118
0.93137
0.93137
0.92549
0.91176
0.90588
0.91176
0.90196
0.88627
0.88039
0.88627
0.88039
0.88627
0.87647
0.85686
0.8451
0.83529
0.81569
0.81176
0.7902
0.78627
0.77647
0.7549
0.77059
0.83137
0.86078
0.86078
0.87059
0.86078
0.88039
0.88627
0.88627
0.88627
0.88627
0.87647
0.88039
0.88627
0.88039
0.88627
0.88627
0.87059
0.87059
0.87647
0.86667
0.88627
0.88627
0.88039
0.88627
0.87647
0.88627
0.88627
0.87647
0.88627
0.86667
0.86667
0.86078
0.8902
0.90196
0.8902
0.89608
0.88627
0.86078
0.8451
0.82157
0.83137
0.8
0.77647
0.76667
0.7549
0.76667
0.79608
0.83137
0.86078
0.89608
0.90588
0.91569
0.92157
0.92157
0.92549
0.92549
0.93137
0.89608
0.7549
0.41961
-0.011765
-0.060784
0.71569
1.0667
1.0824
1.0059
0.97647
0.97647
0.96078
0.95686
0.94706
0.94118
0.93725
0.93137
0.92157
0.93137
0.92549
0.89608
0.81176
0.90196
0.95686
0.93137
0.92549
0.90588
0.90196
0.88627
0.88039
0.87647
0.86078
0.85686
0.83529
0.81176
0.81176
0.81176
0.81569
0.82157
0.84118
0.86078
0.87059
0.88627
0.8902
0.90588
0.90588
0.90588
0.90196
0.89608
0.8902
0.90196
0.88627
0.8902
0.90196
0.8902
0.88627
0.88627
0.88627
0.88039
0.85098
0.8902
0.90588
0.91176
0.90588
0.90196
0.8902
0.90588
0.91176
0.90588
0.89608
0.8902
0.89608
0.89608
0.90196
0.8902
0.88627
0.86667
0.86078
0.84118
0.83137
0.8
0.77647
0.76667
0.76667
0.75098
0.7902
0.82157
0.8451
0.88627
0.91569
0.93137
0.92549
0.92157
0.92157
0.92157
0.93137
0.92549
0.81176
0.51569
0.078431
-0.076471
0.52941
1.0667
1.1471
1.0118
0.93725
0.93137
0.95098
0.95686
0.94706
0.94118
0.92549
0.90588
0.92549
0.93725
0.94118
0.93725
0.92157
0.90588
0.90196
0.90588
0.90588
0.8902
0.88627
0.87647
0.86667
0.86078
0.84118
0.83137
0.82549
0.81176
0.8
0.7902
0.80588
0.81176
0.83137
0.85098
0.86667
0.87059
0.88627
0.88627
0.89608
0.8902
0.88627
0.90196
0.89608
0.8902
0.91176
0.90588
0.89608
0.90196
0.90588
0.90588
0.89608
0.90588
0.90196
0.89608
0.89608
0.90588
0.90196
0.89608
0.88627
0.90196
0.90196
0.8902
0.8902
0.89608
0.8902
0.89608
0.88627
0.8902
0.90588
0.91176
0.90588
0.88627
0.85686
0.83137
0.82157
0.83137
0.78627
0.76667
0.76667
0.7549
0.79608
0.83529
0.87059
0.90196
0.91176
0.91569
0.93725
0.93725
0.93137
0.92157
0.93137
0.94118
0.83137
0.5098
0.058824
-0.092157
0.56078
1.0961
1.1667
1.002
0.95686
0.95686
0.95686
0.94118
0.93725
0.94706
0.93725
0.92549
0.93137
0.93137
0.91569
0.91176
0.90196
0.90196
0.88039
0.87647
0.88627
0.8902
0.88627
0.86078
0.83529
0.83137
0.85686
0.85098
0.83137
0.81176
0.79608
0.8
0.7902
0.8
0.81569
0.84118
0.86078
0.87059
0.86078
0.8902
0.89608
0.8902
0.88627
0.89608
0.88627
0.89608
0.90196
0.89608
0.90196
0.88627
0.88627
0.8902
0.90196
0.8902
0.88627
0.88627
0.89608
0.90196
0.90196
0.90588
0.90196
0.8902
0.90196
0.92157
0.90196
0.88627
0.88039
0.91176
0.90588
0.89608
0.89608
0.89608
0.88627
0.88039
0.87059
0.86078
0.85098
0.83137
0.7902
0.77647
0.78039
0.77647
0.78627
0.81569
0.85686
0.89608
0.91176
0.92549
0.93725
0.93137
0.92549
0.92157
0.93725
0.91176
0.79608
0.4902
0.062745
-0.086275
0.56471
1.1176
1.2078
1.0314
0.97059
0.96667
0.96078
0.95686
0.94706
0.94706
0.95098
0.93137
0.92549
0.95098
0.94706
0.94118
0.93725
0.92549
0.91176
0.91569
0.90588
0.90588
0.90196
0.89608
0.8902
0.88627
0.86078
0.86078
0.86667
0.85098
0.83137
0.82549
0.83137
0.83529
0.8451
0.87059
0.88627
0.89608
0.90588
0.91569
0.92549
0.90588
0.91569
0.92157
0.92157
0.91176
0.90588
0.91176
0.92549
0.92157
0.92157
0.92157
0.90588
0.90196
0.91569
0.91176
0.92157
0.90588
0.90588
0.90196
0.91176
0.93137
0.91569
0.91569
0.91176
0.90196
0.90588
0.91569
0.91176
0.91176
0.90588
0.90588
0.88627
0.86078
0.86078
0.85686
0.81569
0.78627
0.77647
0.78039
0.78039
0.81569
0.8451
0.88039
0.92549
0.94118
0.93725
0.93725
0.93137
0.94118
0.93725
0.95686
0.93137
0.76078
0.40392
-0.047059
-0.12157
0.7098
1.151
1.0863
0.99216
0.96078
0.96667
0.95686
0.95686
0.96667
0.95686
0.95686
0.95686
0.94706
0.94118
0.93137
0.92549
0.92157
0.91569
0.92157
0.91176
0.90588
0.88627
0.88039
0.90588
0.89608
0.88627
0.86667
0.85686
0.8451
0.82157
0.82157
0.81569
0.82549
0.82549
0.83529
0.85098
0.88039
0.88627
0.8902
0.90588
0.90588
0.91176
0.90588
0.8902
0.88627
0.90588
0.90196
0.90588
0.90588
0.90196
0.8902
0.89608
0.89608
0.88627
0.88627
0.89608
0.90196
0.89608
0.8902
0.88627
0.90588
0.90588
0.90588
0.90588
0.91569
0.90588
0.90196
0.88627
0.88039
0.8902
0.90588
0.8902
0.88039
0.86078
0.83137
0.82157
0.82549
0.77647
0.76667
0.76078
0.76667
0.7902
0.83137
0.86667
0.8902
0.90588
0.91569
0.93137
0.93137
0.93137
0.93137
0.93137
0.92157
0.7902
0.5098
0.07451
-0.082353
0.51961
1.0824
1.1373
0.99216
0.95098
0.96078
0.95686
0.95686
0.95098
0.94706
0.93137
0.92549
0.93137
0.94118
0.94706
0.92157
0.91176
0.90588
0.90588
0.90588
0.90588
0.87647
0.86667
0.88627
0.8902
0.88039
0.87059
0.85098
0.82549
0.81176
0.8
0.80588
0.79608
0.82157
0.83137
0.8451
0.85098
0.87059
0.89608
0.89608
0.90588
0.90196
0.8902
0.89608
0.90588
0.88627
0.88039
0.87647
0.89608
0.90196
0.90588
0.8902
0.8902
0.88627
0.88627
0.89608
0.90588
0.89608
0.8902
0.8902
0.90196
0.88039
0.88627
0.88627
0.90588
0.91176
0.89608
0.90588
0.88627
0.88627
0.8902
0.89608
0.90588
0.90196
0.8902
0.88039
0.85098
0.84118
0.85098
0.82549
0.77059
0.75098
0.7549
0.77647
0.7902
0.81569
0.85098
0.90196
0.91569
0.92157
0.93137
0.92549
0.93137
0.92549
0.93137
0.91176
0.76667
0.41961
-0.015686
-0.10588
0.67059
1.1059
1.1314
0.99216
0.95098
0.94118
0.95098
0.94706
0.95098
0.95686
0.93137
0.93725
0.93137
0.92157
0.90588
0.91569
0.92157
0.91176
0.90588
0.89608
0.8902
0.87647
0.86667
0.88627
0.88039
0.85686
0.82157
0.81569
0.84118
0.83137
0.80588
0.8
0.79608
0.81176
0.82549
0.8451
0.85686
0.86078
0.86667
0.88627
0.88627
0.8902
0.8902
0.88039
0.88627
0.8902
0.8902
0.8902
0.89608
0.88627
0.88627
0.88627
0.89608
0.88627
0.88627
0.8902
0.90588
0.8902
0.8902
0.88627
0.87647
0.88627
0.8902
0.90588
0.90588
0.89608
0.89608
0.88627
0.88039
0.88627
0.8902
0.89608
0.89608
0.90588
0.89608
0.89608
0.88627
0.87059
0.8451
0.84118
0.81569
0.7902
0.77059
0.77647
0.76667
0.80588
0.83529
0.87059
0.90588
0.91569
0.93137
0.93725
0.92549
0.92157
0.93137
0.93137
0.89608
0.73137
0.39412
-0.060784
-0.10588
0.72157
1.151
1.1569
1.0059
0.97059
0.96667
0.95686
0.95686
0.95686
0.96078
0.95686
0.94706
0.93725
0.94118
0.94706
0.92549
0.92157
0.93137
0.91569
0.90588
0.89608
0.90588
0.90196
0.89608
0.90196
0.88627
0.86078
0.86078
0.85686
0.84118
0.83529
0.81176
0.81176
0.82157
0.8451
0.85098
0.88627
0.90588
0.90588
0.90588
0.90588
0.90196
0.90196
0.8902
0.90588
0.92157
0.90588
0.89608
0.90588
0.89608
0.8902
0.90196
0.8902
0.88627
0.88039
0.89608
0.90588
0.90588
0.90196
0.89608
0.90588
0.91176
0.91569
0.89608
0.88627
0.88627
0.89608
0.90588
0.90588
0.90588
0.89608
0.88627
0.88627
0.88627
0.89608
0.88627
0.87059
0.86078
0.8451
0.84118
0.81176
0.77059
0.7549
0.76667
0.78039
0.7902
0.83137
0.85686
0.88039
0.90588
0.91569
0.93137
0.93725
0.93137
0.91569
0.92549
0.90588
0.7549
0.41961
-0.041176
-0.14118
0.65098
1.1176
1.1275
0.98627
0.95686
0.95098
0.94706
0.94118
0.94118
0.94706
0.95098
0.94706
0.95686
0.94706
0.93137
0.92549
0.91569
0.89608
0.88627
0.90588
0.89608
0.88627
0.88627
0.88627
0.87647
0.86667
0.86078
0.83529
0.82549
0.83137
0.81176
0.80588
0.81176
0.81176
0.81569
0.83529
0.86078
0.88039
0.88039
0.88627
0.8902
0.88627
0.90196
0.90588
0.8902
0.88627
0.88627
0.8902
0.8902
0.90196
0.90588
0.8902
0.89608
0.88627
0.8902
0.89608
0.88627
0.88627
0.90196
0.88627
0.88627
0.88627
0.8902
0.89608
0.90196
0.90588
0.90196
0.8902
0.88627
0.88627
0.88627
0.88627
0.88627
0.88627
0.88627
0.87647
0.86667
0.87059
0.85686
0.83529
0.81176
0.77059
0.76667
0.76667
0.7549
0.77647
0.81569
0.85098
0.88039
0.90196
0.90588
0.91569
0.92157
0.92549
0.93137
0.95098
0.95686
0.86667
0.65098
0.23922
-0.10196
0.26863
0.95098
1.1216
1.0118
0.95098
0.94118
0.94706
0.94118
0.93725
0.95686
0.95098
0.94118
0.93137
0.92549
0.92549
0.90588
0.88627
0.90196
0.90588
0.90196
0.90588
0.88627
0.8902
0.87059
0.85686
0.85686
0.85098
0.83529
0.81176
0.80588
0.79608
0.7902
0.80588
0.80588
0.81176
0.82549
0.83137
0.8451
0.87059
0.86667
0.86078
0.88039
0.88627
0.88627
0.88627
0.8902
0.88039
0.88627
0.90196
0.88039
0.87647
0.88627
0.88627
0.88039
0.86667
0.86078
0.86667
0.88039
0.87059
0.88627
0.8902
0.88627
0.88039
0.88039
0.87647
0.86667
0.87059
0.87647
0.88627
0.88039
0.88627
0.87647
0.87647
0.88039
0.86667
0.86667
0.88627
0.86667
0.86078
0.87647
0.86078
0.84118
0.83137
0.81569
0.78627
0.75098
0.7451
0.7549
0.7451
0.76667
0.81176
0.83529
0.87059
0.8902
0.90588
0.90196
0.90588
0.8902
0.8902
0.90196
0.88039
0.73529
0.4
-0.056863
-0.11765
0.6549
1.0922
1.1314
0.98627
0.93725
0.92549
0.93725
0.94118
0.93137
0.92157
0.91176
0.91569
0.90588
0.90196
0.90196
0.89608
0.89608
0.8902
0.88627
0.88039
0.86667
0.87059
0.87647
0.87059
0.86078
0.85686
0.83529
0.83137
0.82157
0.81176
0.80588
0.79608
0.8
0.81176
0.81176
0.82549
0.85686
0.88039
0.88627
0.88627
0.90588
0.90588
0.88039
0.87647
0.90196
0.90588
0.8902
0.8902
0.8902
0.89608
0.83529
0.8
0.90196
0.92549
0.93725
0.93137
0.92157
0.90588
0.88627
0.87647
0.83137
0.82549
0.90588
0.91569
0.90196
0.92549
0.91569
0.91176
0.90588
0.90588
0.87647
0.86667
0.89608
0.91176
0.93137
0.91569
0.89608
0.88039
0.88627
0.90588
0.8902
0.85686
0.83529
0.84118
0.8
0.78627
0.77059
0.75098
0.72549
0.77059
0.82549
0.88627
0.93725
0.91569
0.93725
0.93725
0.94118
0.93137
0.93725
0.94706
0.85686
0.59608
0.15882
-0.12157
0.30392
0.98235
1.1314
1.0216
0.96078
0.94706
0.95686
0.95686
0.95686
0.95686
0.95686
0.95098
0.94118
0.93725
0.93137
0.91569
0.90588
0.93137
0.92157
0.92157
0.92549
0.91176
0.90588
0.88627
0.88627
0.8902
0.86667
0.85686
0.8451
0.82549
0.82157
0.80588
0.82157
0.86078
0.8451
0.84118
0.88039
0.90196
0.90196
0.90588
0.90588
0.90196
0.88039
0.87647
0.91569
0.92157
0.88627
0.88039
0.89608
0.88627
0.8902
0.88627
0.91176
0.90588
0.90588
0.89608
0.8902
0.88627
0.90588
0.8902
0.88627
0.87647
0.8451
0.81569
0.88039
0.93725
0.94706
0.93137
0.91176
0.89608
0.8902
0.90588
0.89608
0.90196
0.8902
0.8902
0.88627
0.89608
0.87059
0.84118
0.84118
0.81569
0.83137
0.80588
0.78039
0.76667
0.77059
0.7549
0.78039
0.79608
0.82549
0.91176
0.92549
0.91569
0.94706
0.95098
0.95686
0.94118
0.93137
0.88039
0.67059
0.25882
-0.11765
0.12353
0.86078
1.151
1.0725
0.98627
0.95686
0.95098
0.95098
0.94118
0.93725
0.93137
0.93725
0.94118
0.93137
0.93725
0.92157
0.90196
0.90588
0.89608
0.88627
0.88039
0.87059
0.89608
0.90588
0.90196
0.88627
0.88039
0.87059
0.85098
0.84118
0.83529
0.82157
0.80588
0.81176
0.82549
0.83137
0.85098
0.86667
0.8902
0.8902
0.90196
0.91569
0.91176
0.91569
0.90196
0.90588
0.89608
0.89608
0.90196
0.88627
0.88627
0.8902
0.88627
0.8902
0.8902
0.88039
0.86078
0.85098
0.89608
0.92157
0.89608
0.90588
0.90588
0.8902
0.88627
0.8902
0.89608
0.91176
0.91176
0.90196
0.89608
0.90196
0.88039
0.88039
0.89608
0.90196
0.89608
0.90588
0.89608
0.8902
0.87647
0.86078
0.8451
0.83137
0.78627
0.77059
0.78039
0.76667
0.77647
0.8
0.85098
0.89608
0.92549
0.92549
0.93137
0.93137
0.93137
0.92157
0.93725
0.94118
0.82157
0.53922
0.1098
-0.072549
0.49412
1.0863
1.1667
1.0157
0.95686
0.95686
0.96667
0.96667
0.95098
0.94118
0.95686
0.95686
0.96078
0.95686
0.93137
0.93137
0.92549
0.91569
0.91176
0.91569
0.92549
0.91176
0.90588
0.90588
0.89608
0.87647
0.87059
0.86078
0.85686
0.83529
0.83529
0.83137
0.82549
0.82157
0.83529
0.84118
0.85686
0.86078
0.87647
0.8902
0.88627
0.88627
0.90196
0.90588
0.91176
0.90588
0.90588
0.8902
0.8902
0.90588
0.8902
0.88627
0.90196
0.90588
0.87059
0.87647
0.90196
0.91176
0.90588
0.90588
0.90588
0.89608
0.88627
0.88627
0.8902
0.90588
0.89608
0.89608
0.90588
0.90588
0.90588
0.89608
0.8902
0.88627
0.8902
0.88627
0.88039
0.86078
0.8451
0.84118
0.8451
0.82157
0.78039
0.76667
0.76667
0.76078
0.7902
0.82549
0.85098
0.8902
0.90588
0.90588
0.93137
0.93725
0.93137
0.94706
0.95686
0.92157
0.78039
0.47451
0.013725
-0.092157
0.63529
1.1176
1.1275
1.002
0.95686
0.94706
0.94118
0.95686
0.95686
0.95686
0.95686
0.95098
0.95098
0.94118
0.92549
0.92157
0.91569
0.91176
0.91569
0.90196
0.90588
0.91569
0.90588
0.89608
0.89608
0.88627
0.88627
0.86667
0.85686
0.83529
0.81176
0.8
0.81176
0.83137
0.83529
0.8451
0.86667
0.88627
0.90588
0.90196
0.90588
0.90588
0.89608
0.8902
0.90588
0.91176
0.89608
0.88627
0.90588
0.90588
0.90196
0.88627
0.87647
0.8902
0.90588
0.8902
0.89608
0.90588
0.92157
0.91569
0.90196
0.90588
0.90588
0.90588
0.90588
0.89608
0.88627
0.8902
0.90588
0.90196
0.90588
0.89608
0.89608
0.89608
0.90196
0.90196
0.90588
0.8902
0.87647
0.87059
0.88627
0.86078
0.84118
0.83529
0.85098
0.7902
0.76078
0.73137
0.76667
0.7902
0.82549
0.83529
0.87059
0.90196
0.91176
0.91176
0.92157
0.92157
0.92549
0.93725
0.91569
0.84118
0.61569
0.22353
-0.060784
0.36471
0.99608
1.1216
1.0118
0.95098
0.94706
0.95098
0.94706
0.94118
0.93725
0.93137
0.93725
0.92549
0.91176
0.90588
0.92549
0.92157
0.90588
0.91569
0.89608
0.88627
0.8902
0.88627
0.88627
0.88039
0.86078
0.84118
0.83137
0.84118
0.82549
0.81176
0.7902
0.7902
0.7902
0.78039
0.8
0.84118
0.87647
0.88627
0.8902
0.88627
0.88039
0.8902
0.88627
0.88627
0.88039
0.88627
0.88039
0.8902
0.90196
0.90196
0.88627
0.86667
0.87059
0.8902
0.8902
0.88627
0.90196
0.87647
0.86078
0.88039
0.90196
0.90196
0.88627
0.89608
0.8902
0.8902
0.88039
0.86078
0.87647
0.89608
0.88627
0.87647
0.87647
0.87647
0.8902
0.90196
0.90588
0.86667
0.86667
0.85686
0.83529
0.80588
0.7549
0.73529
0.77059
0.77647
0.76667
0.80588
0.83137
0.86667
0.90196
0.92157
0.92549
0.92549
0.93137
0.92157
0.91569
0.90588
0.80588
0.48431
0.052941
-0.076471
0.5902
1.0922
1.1569
0.99608
0.93137
0.92157
0.93137
0.94118
0.93725
0.92549
0.91176
0.93725
0.91569
0.90588
0.90196
0.90588
0.90588
0.8902
0.87647
0.88627
0.89608
0.88627
0.87059
0.86078
0.86667
0.85686
0.85098
0.83137
0.81569
0.81176
0.81176
0.81176
0.79608
0.76667
0.7902
0.84118
0.86667
0.87059
0.87059
0.86667
0.88039
0.89608
0.88039
0.87647
0.86667
0.84118
0.86667
0.90588
0.90196
0.88039
0.88039
0.88627
0.87059
0.87647
0.87059
0.86667
0.8902
0.88627
0.88627
0.87647
0.86667
0.90196
0.89608
0.88627
0.88627
0.87647
0.88627
0.88627
0.87647
0.88627
0.86078
0.85098
0.88039
0.88627
0.8902
0.88039
0.86667
0.84118
0.83529
0.83529
0.81569
0.76667
0.7549
0.76078
0.7549
0.78039
0.80588
0.83529
0.8902
0.90588
0.92549
0.93725
0.94118
0.94706
0.95686
0.94706
0.8902
0.76667
0.4451
0.0039216
-0.11765
0.60588
1.0608
1.0922
0.97059
0.95098
0.94706
0.96078
0.99608
1.0412
1.051
1.0118
0.94706
0.88039
0.81569
0.78039
0.81176
0.84118
0.82157
0.79608
0.8
0.81176
0.82549
0.83529
0.8451
0.8451
0.85098
0.8451
0.85098
0.83529
0.83137
0.81176
0.8
0.81176
0.83137
0.8451
0.85098
0.87647
0.8902
0.89608
0.90588
0.90196
0.90196
0.90588
0.91176
0.89608
0.93137
0.93137
0.92157
0.91569
0.90196
0.90588
0.91176
0.92157
0.91569
0.91569
0.92549
0.93725
0.92549
0.92157
0.91569
0.90588
0.90196
0.90588
0.88627
0.88627
0.8902
0.90588
0.91176
0.91176
0.91176
0.91569
0.90196
0.89608
0.90588
0.89608
0.88627
0.87647
0.85686
0.83529
0.84118
0.7902
0.76667
0.76667
0.77647
0.78627
0.84118
0.87647
0.91176
0.94118
0.94706
0.95098
0.94706
0.93725
0.93137
0.93137
0.91176
0.81569
0.55098
0.11961
-0.060784
0.5098
1.0922
1.1627
1.002
0.95098
0.94118
0.95686
0.93725
0.94118
0.95098
0.94706
0.93137
0.93725
0.93137
0.93137
0.93725
0.93137
0.92549
0.91176
0.90196
0.88039
0.90196
0.91176
0.90588
0.89608
0.88039
0.85686
0.8451
0.83529
0.82157
0.79608
0.78627
0.81176
0.82549
0.82549
0.83137
0.84118
0.85098
0.87059
0.88627
0.8902
0.88627
0.90588
0.88627
0.90196
0.92549
0.92157
0.91176
0.90588
0.90588
0.90588
0.90588
0.91176
0.91569
0.92157
0.92157
0.90588
0.91176
0.90588
0.91569
0.92549
0.92157
0.91176
0.90588
0.93725
0.92549
0.92549
0.91176
0.90588
0.91569
0.92549
0.92549
0.92549
0.92157
0.90588
0.89608
0.88039
0.87647
0.86078
0.86667
0.87059
0.80588
0.77647
0.78039
0.77647
0.80588
0.84118
0.8902
0.92157
0.92549
0.93725
0.95686
0.94706
0.95686
0.95686
0.96078
0.90588
0.7549
0.38431
-0.031373
-0.066667
0.79608
1.1824
1.1922
1.0118
0.95098
0.94118
0.95686
0.95686
0.97647
0.98627
0.96667
0.95686
0.94706
0.93725
0.93137
0.92549
0.92157
0.92157
0.90588
0.90196
0.89608
0.90196
0.89608
0.88039
0.85686
0.86078
0.87059
0.8451
0.83529
0.83529
0.82549
0.82549
0.82549
0.83529
0.85098
0.86078
0.88627
0.90196
0.90588
0.89608
0.90588
0.90196
0.91176
0.91569
0.91569
0.90588
0.92157
0.90588
0.8902
0.89608
0.91176
0.92157
0.90588
0.90196
0.90588
0.91176
0.90588
0.8902
0.88627
0.90196
0.90588
0.89608
0.90588
0.90196
0.91176
0.91569
0.90588
0.91176
0.90196
0.8902
0.8902
0.90196
0.91176
0.89608
0.88627
0.89608
0.88039
0.8451
0.84118
0.8451
0.8
0.78039
0.78627
0.78627
0.80588
0.8451
0.88039
0.91176
0.92157
0.93137
0.93725
0.93137
0.92549
0.93137
0.94118
0.91569
0.7549
0.39412
-0.047059
-0.096078
0.78039
1.1667
1.0863
1.002
0.96667
0.96667
0.96667
0.96667
0.94118
0.94706
0.94706
0.93137
0.92549
0.93137
0.92549
0.93137
0.93137
0.91176
0.90588
0.90588
0.89608
0.8902
0.90196
0.88627
0.85686
0.85098
0.87647
0.88039
0.86667
0.8451
0.82549
0.81176
0.80588
0.82157
0.83529
0.8451
0.87059
0.88039
0.8902
0.89608
0.90196
0.8902
0.88627
0.90196
0.91176
0.90588
0.90588
0.8902
0.88627
0.90196
0.88627
0.88039
0.86667
0.88627
0.8902
0.88039
0.87059
0.90196
0.89608
0.88627
0.87059
0.88039
0.90588
0.90196
0.88627
0.8902
0.90196
0.8902
0.89608
0.90196
0.88627
0.8902
0.88039
0.88627
0.86667
0.86078
0.88627
0.86078
0.83137
0.81176
0.82549
0.78627
0.76667
0.77059
0.76667
0.7902
0.81569
0.83137
0.86667
0.88627
0.90588
0.91569
0.90588
0.90588
0.92157
0.93137
0.91569
0.7902
0.50588
0.094118
-0.060784
0.5451
1.0765
1.1118
0.98235
0.92549
0.92157
0.94118
0.94118
0.95098
0.93725
0.91569
0.93137
0.95098
0.92157
0.90588
0.91176
0.8902
0.89608
0.88627
0.87647
0.88039
0.85686
0.85686
0.87647
0.85686
0.85098
0.84118
0.82157
0.81176
0.81176
0.78039
0.76667
0.77647
0.78039
0.77059
0.80588
0.82157
0.83529
0.8451
0.83529
0.87059
0.86667
0.87647
0.88039
0.87647
0.87059
0.85686
0.8451
0.85686
0.84118
0.86078
0.85686
0.87059
0.8451
0.84118
0.8451
0.86667
0.86078
0.86667
0.86078
0.86667
0.87647
0.87059
0.86667
0.87059
0.86667
0.87647
0.87059
0.87647
0.86667
0.87059
0.88627
0.88039
0.87059
0.87647
0.88627
0.87647
0.86667
0.88039
0.87059
0.85686
0.83529
0.82157
0.83529
0.79608
0.7549
0.75098
0.76078
0.77059
0.80588
0.82549
0.87647
0.90588
0.91176
0.92157
0.92157
0.90588
0.92157
0.92549
0.92157
0.85686
0.64118
0.23333
-0.060784
0.33529
0.98627
1.1118
1.0216
0.95686
0.94118
0.94706
0.94706
0.95098
0.94118
0.93725
0.93137
0.93137
0.92549
0.93137
0.91176
0.90588
0.90196
0.90588
0.8902
0.88627
0.88627
0.8902
0.88039
0.87059
0.86078
0.86078
0.85686
0.84118
0.83529
0.82549
0.81569
0.81176
0.81176
0.82549
0.83529
0.85686
0.86667
0.88627
0.90196
0.90588
0.8902
0.89608
0.90196
0.89608
0.8902
0.89608
0.88627
0.89608
0.90196
0.8902
0.88039
0.88627
0.88627
0.88039
0.88039
0.88627
0.8902
0.88627
0.88627
0.89608
0.88627
0.88627
0.88627
0.90196
0.8902
0.89608
0.88627
0.89608
0.90196
0.8902
0.88627
0.8902
0.90588
0.88627
0.88627
0.88627
0.88627
0.87647
0.86078
0.83529
0.84118
0.80588
0.76667
0.75098
0.76078
0.74118
0.78627
0.82157
0.8451
0.90196
0.91176
0.90588
0.92157
0.91569
0.92157
0.91176
0.92157
0.89608
0.78039
0.53529
0.12353
-0.031373
0.58039
1.1118
1.1569
1.0059
0.95098
0.96078
0.95686
0.97647
0.95686
0.96078
0.95098
0.95686
0.93137
0.90196
0.92549
0.94118
0.89608
0.88039
0.93725
0.93137
0.93725
0.90588
0.90196
0.91569
0.91176
0.88627
0.88627
0.84118
0.83137
0.86078
0.81176
0.78627
0.84118
0.86078
0.85686
0.86078
0.88039
0.91569
0.91176
0.93137
0.92157
0.90196
0.93137
0.92157
0.90588
0.92157
0.91569
0.93137
0.92157
0.92549
0.8902
0.88627
0.91569
0.93137
0.91176
0.91176
0.90588
0.91176
0.90588
0.90588
0.90588
0.90588
0.92549
0.90588
0.89608
0.88627
0.90588
0.89608
0.8902
0.88627
0.87059
0.86667
0.8902
0.88627
0.88039
0.87059
0.84118
0.83137
0.82549
0.78039
0.75098
0.72157
0.72549
0.77059
0.81176
0.83529
0.86667
0.88627
0.87059
0.86078
0.83529
0.76667
0.8451
0.94118
0.97059
0.91569
0.72157
0.32941
-0.047059
0.23922
0.91176
1.1216
1.002
0.89608
0.82549
0.77059
0.64118
0.77059
1.0471
1.0667
0.99216
0.96078
0.92549
0.90588
0.88627
0.8902
0.86078
0.83529
0.85686
0.79608
0.73529
0.86667
0.88039
0.86667
0.94118
0.92157
0.88039
0.86667
0.85098
0.7902
0.7549
0.81176
0.82549
0.81569
0.82549
0.78627
0.56078
0.48431
0.72157
0.96667
1.1118
1.051
0.99216
0.95686
0.93137
0.91569
0.90588
0.90588
0.8902
0.88627
0.88627
0.88627
0.88627
0.8902
0.90196
0.90196
0.90196
0.90196
0.90196
0.88627
0.88627
0.90196
0.90196
0.90196
0.89608
0.8902
0.88627
0.88627
0.89608
0.89608
0.8902
0.88627
0.88627
0.88039
0.85686
0.84118
0.83529
0.82157
0.78039
0.75098
0.7549
0.76078
0.77647
0.80588
0.8451
0.88039
0.90588
0.91176
0.91569
0.92157
0.92549
0.92549
0.92157
0.93137
0.87059
0.66471
0.29412
-0.05098
0.2902
0.94706
1.1216
1.0216
0.96078
0.94118
0.95098
0.94118
0.94706
0.95098
0.91569
0.93137
0.93725
0.93137
0.92549
0.92549
0.91569
0.90588
0.8902
0.89608
0.8902
0.90196
0.89608
0.87647
0.86667
0.85098
0.85098
0.85098
0.84118
0.82157
0.80588
0.8
0.81176
0.80588
0.83529
0.84118
0.85098
0.83137
0.82549
0.91569
0.93725
0.88039
0.92549
0.94706
0.92157
0.91569
0.93137
0.92549
0.91176
0.90196
0.90588
0.90196
0.90588
0.90588
0.89608
0.88627
0.89608
0.90196
0.91176
0.91176
0.91176
0.90588
0.90588
0.91176
0.90588
0.90588
0.90588
0.90588
0.90588
0.90588
0.90588
0.90196
0.88039
0.86667
0.85686
0.84118
0.8
0.78627
0.77647
0.77647
0.79608
0.82549
0.85686
0.90196
0.93137
0.93137
0.93137
0.94118
0.93725
0.93137
0.93725
0.94706
0.8902
0.7098
0.31961
-0.047059
0.2549
0.93725
1.1765
1.0725
0.98235
0.96078
0.95686
0.95686
0.95686
0.96667
0.95098
0.95686
0.94118
0.93725
0.93137
0.93137
0.92157
0.91569
0.91176
0.91176
0.90588
0.90196
0.8902
0.88627
0.8902
0.87059
0.87059
0.86078
0.84118
0.83529
0.82549
0.82157
0.82549
0.82157
0.83529
0.85098
0.86667
0.88039
0.89608
0.90588
0.90588
0.90588
0.90588
0.90588
0.90588
0.90588
0.90588
0.90196
0.90196
0.90196
0.90196
0.89608
0.90196
0.89608
0.89608
0.89608
0.90196
0.89608
0.89608
0.90196
0.90588
0.90588
0.90196
0.90588
0.90588
0.90588
0.90196
0.8902
0.88627
0.87059
0.85098
0.84118
0.8
0.77059
0.76078
0.76078
0.77059
0.81569
0.8451
0.88039
0.90588
0.92549
0.93137
0.93137
0.93137
0.93137
0.93137
0.93725
0.91569
0.7902
0.48431
0.033333
-0.072549
0.68039
1.1373
1.151
0.99216
0.94706
0.95098
0.94706
0.95686
0.95098
0.94118
0.93137
0.92549
0.92549
0.92157
0.91176
0.91176
0.91569
0.90588
0.90196
0.8902
0.8902
0.88627
0.88039
0.86667
0.86078
0.85686
0.8451
0.83529
0.82549
0.81176
0.80588
0.79608
0.80588
0.81569
0.83137
0.84118
0.86078
0.87059
0.88039
0.87647
0.88627
0.88627
0.88039
0.88627
0.87647
0.87647
0.88039
0.87647
0.87059
0.86667
0.87647
0.88039
0.87647
0.88039
0.87647
0.88039
0.88627
0.88039
0.88039
0.88039
0.87647
0.88039
0.87647
0.88627
0.88039
0.87647
0.85686
0.84118
0.81569
0.81569
0.79608
0.76667
0.75098
0.75098
0.76667
0.8
0.82157
0.86078
0.90196
0.92157
0.92549
0.92549
0.93137
0.93137
0.93725
0.94118
0.92549
0.7902
0.46078
0.017647
-0.082353
0.73137
1.1373
1.0765
0.99216
0.95686
0.95098
0.95686
0.95098
0.94706
0.94706
0.94706
0.93725
0.93137
0.92549
0.92549
0.91569
0.92157
0.90588
0.90196
0.89608
0.90196
0.88627
0.88627
0.87647
0.86667
0.86078
0.85098
0.84118
0.83137
0.81569
0.8
0.7902
0.8
0.7902
0.8
0.85686
0.88039
0.8902
0.8902
0.89608
0.89608
0.89608
0.90588
0.8902
0.88627
0.8902
0.90196
0.88627
0.88627
0.90196
0.90196
0.88627
0.88627
0.90588
0.8902
0.88627
0.8902
0.88627
0.88627
0.88039
0.90196
0.90588
0.90588
0.89608
0.87059
0.86078
0.8451
0.84118
0.8451
0.79608
0.78039
0.77059
0.76078
0.78039
0.82549
0.85686
0.90196
0.91569
0.92549
0.92157
0.93725
0.94118
0.93137
0.93725
0.93137
0.86667
0.6451
0.21373
-0.10196
0.30392
0.97059
1.1569
1.0314
0.96667
0.96078
0.95686
0.95686
0.95098
0.93725
0.93137
0.94118
0.93137
0.93725
0.92157
0.91176
0.90588
0.90588
0.90588
0.90196
0.8902
0.88627
0.87647
0.87059
0.87647
0.86667
0.85686
0.8451
0.84118
0.82157
0.8
0.80588
0.80588
0.80588
0.81569
0.83529
0.8451
0.86078
0.86078
0.87059
0.8902
0.89608
0.8902
0.89608
0.89608
0.88627
0.88627
0.88627
0.88627
0.8902
0.89608
0.89608
0.88627
0.88627
0.8902
0.90196
0.90196
0.90196
0.90196
0.88627
0.88627
0.89608
0.90588
0.90588
0.90588
0.90588
0.90588
0.90196
0.88627
0.87059
0.85098
0.84118
0.85098
0.79608
0.77647
0.78039
0.77647
0.8
0.83137
0.86078
0.90588
0.93137
0.93137
0.93137
0.94118
0.93725
0.93137
0.95098
0.93725
0.83137
0.52941
0.084314
-0.086275
0.53529
1.0961
1.1471
1.0157
0.96667
0.96078
0.96667
0.97059
0.96078
0.95686
0.95686
0.94118
0.93725
0.94118
0.93137
0.93137
0.92549
0.92549
0.91569
0.91176
0.90196
0.89608
0.90196
0.8902
0.88039
0.86667
0.86078
0.85098
0.83529
0.82549
0.81176
0.80588
0.81176
0.82157
0.83529
0.85098
0.86667
0.88627
0.89608
0.89608
0.90588
0.90588
0.90196
0.88627
0.90196
0.90196
0.90588
0.89608
0.89608
0.89608
0.8902
0.88627
0.88039
0.89608
0.90196
0.89608
0.89608
0.8902
0.88627
0.90196
0.90196
0.8902
0.88627
0.90196
0.90196
0.90588
0.90196
0.90588
0.89608
0.90196
0.90196
0.90588
0.8902
0.86667
0.84118
0.83529
0.8451
0.78627
0.76667
0.76078
0.77059
0.8
0.83137
0.85686
0.89608
0.92549
0.93725
0.93137
0.93137
0.93137
0.92549
0.94706
0.95686
0.8451
0.58039
0.12353
-0.092157
0.44902
1.0765
1.1471
1.0059
0.95098
0.95098
0.95686
0.96078
0.95686
0.95098
0.95686
0.93725
0.93725
0.93137
0.93137
0.93137
0.92549
0.91569
0.91176
0.90588
0.89608
0.8902
0.90196
0.8902
0.88039
0.87059
0.86667
0.85686
0.83529
0.81176
0.80588
0.81176
0.81569
0.81176
0.83529
0.8451
0.86078
0.87647
0.88627
0.89608
0.90196
0.90588
0.90588
0.90196
0.88627
0.89608
0.89608
0.90196
0.90196
0.89608
0.8902
0.8902
0.8902
0.89608
0.8902
0.89608
0.8902
0.89608
0.8902
0.8902
0.89608
0.90196
0.90588
0.89608
0.90196
0.8902
0.88627
0.88627
0.90196
0.89608
0.90196
0.89608
0.8902
0.88627
0.8902
0.88627
0.89608
0.88627
0.88627
0.88627
0.88627
0.88039
0.88627
0.89608
0.88627
0.87059
0.87059
0.88039
0.88627
0.88627
0.87647
0.86667
0.87059
0.8902
0.88039
0.85686
0.83137
0.82157
0.79608
0.76667
0.74118
0.7549
0.75098
0.77059
0.81176
0.83137
0.85686
0.90196
0.90588
0.91176
0.91176
0.92157
0.92549
0.93137
0.87059
0.69608
0.32941
-0.10588
-0.11765
0.77059
1.1471
1.0667
0.97647
0.94706
0.94706
0.94118
0.94706
0.94118
0.95098
0.94118
0.93137
0.92549
0.91569
0.92157
0.91176
0.91569
0.90196
0.89608
0.89608
0.90196
0.88627
0.88627
0.87647
0.88039
0.87059
0.86667
0.85098
0.83529
0.81569
0.81569
0.81176
0.80588
0.81176
0.81176
0.83137
0.8451
0.86078
0.86667
0.86078
0.87647
0.88627
0.88627
0.87647
0.88039
0.88039
0.87647
0.87647
0.86667
0.86078
0.87059
0.87647
0.87059
0.87647
0.87059
0.88039
0.87647
0.87647
0.88039
0.88627
0.87647
0.88039
0.8902
0.89608
0.88627
0.88627
0.8902
0.89608
0.89608
0.88627
0.88627
0.88627
0.88039
0.88039
0.88627
0.88627
0.8902
0.88627
0.88627
0.88039
0.87059
0.86078
0.87647
0.88039
0.87647
0.88039
0.88627
0.87647
0.88039
0.88039
0.88627
0.87059
0.88039
0.88627
0.88039
0.85686
0.8451
0.82549
0.82157
0.78039
0.7451
0.74118
0.75098
0.76078
0.8
0.82549
0.85098
0.8902
0.91176
0.92157
0.91569
0.92157
0.93137
0.92549
0.91569
0.84118
0.6
0.17451
-0.14118
0.26471
0.96078
1.1176
1.0216
0.96078
0.95098
0.95686
0.95686
0.95098
0.95686
0.93725
0.94118
0.94118
0.94118
0.93725
0.93137
0.92549
0.92157
0.91176
0.90588
0.89608
0.89608
0.8902
0.8902
0.88627
0.88039
0.87059
0.86078
0.86078
0.84118
0.82549
0.81176
0.81176
0.81569
0.82549
0.83529
0.85098
0.86078
0.88039
0.88627
0.89608
0.8902
0.8902
0.88627
0.89608
0.90588
0.90588
0.89608
0.8902
0.89608
0.88627
0.8902
0.90196
0.90588
0.90588
0.90588
0.90196
0.8902
0.8902
0.89608
0.88627
0.89608
0.89608
0.8902
0.88627
0.90588
0.90588
0.90588
0.8902
0.89608
0.89608
0.89608
0.90196
0.90588
0.89608
0.88627
0.88627
0.89608
0.90196
0.89608
0.8902
0.8902
0.8902
0.88627
0.88627
0.88627
0.88627
0.88039
0.88627
0.89608
0.90196
0.88627
0.89608
0.8902
0.88627
0.86078
0.84118
0.82157
0.82157
0.78627
0.7451
0.7549
0.77059
0.78039
0.81176
0.84118
0.86078
0.89608
0.92157
0.93137
0.92549
0.92549
0.94118
0.95098
0.95686
0.87647
0.64118
0.21961
-0.12157
0.27843
0.96667
1.1314
1.0275
0.97059
0.96078
0.96078
0.95686
0.95686
0.95098
0.95686
0.94118
0.93725
0.94118
0.93137
0.93137
0.92549
0.93137
0.91176
0.90588
0.90588
0.8902
0.88627
0.88039
0.87059
0.86667
0.86078
0.86667
0.84118
0.83529
0.83529
0.82157
0.81176
0.81176
0.81569
0.81176
0.84118
0.86078
0.86078
0.87059
0.88627
0.8902
0.89608
0.8902
0.88627
0.88627
0.88627
0.88039
0.88627
0.8902
0.89608
0.8902
0.88627
0.88627
0.88627
0.88627
0.88627
0.8902
0.88627
0.8902
0.89608
0.90588
0.89608
0.88627
0.88627
0.8902
0.90196
0.90196
0.8902
0.88627
0.88039
0.8902
0.88627
0.88627
0.8902
0.88039
0.88627
0.88627
0.88627
0.88627
0.88627
0.88627
0.88039
0.88627
0.88627
0.88039
0.88039
0.88039
0.88039
0.88627
0.88627
0.8902
0.88039
0.87647
0.86078
0.83137
0.81176
0.81176
0.78039
0.74118
0.73529
0.7451
0.76078
0.80588
0.83529
0.85098
0.8902
0.90588
0.91569
0.90588
0.91176
0.92157
0.92157
0.91176
0.83529
0.57451
0.12353
-0.11765
0.34902
1.0118
1.1412
1.0216
0.96078
0.94706
0.93725
0.95686
0.94706
0.93137
0.93137
0.93137
0.93137
0.92549
0.90588
0.90588
0.90588
0.89608
0.88627
0.88627
0.8902
0.88627
0.8902
0.88039
0.87059
0.86078
0.86078
0.8451
0.8451
0.83529
0.83529
0.81176
0.8
0.81176
0.82549
0.81569
0.83529
0.85098
0.86078
0.87059
0.8902
0.88627
0.88039
0.88627
0.88627
0.87059
0.87647
0.8902
0.88627
0.87647
0.8902
0.90196
0.8902
0.8902
0.88039
0.88627
0.90196
0.89608
0.88627
0.89608
0.90588
0.89608
0.88627
0.8902
0.88627
0.88627
0.89608
0.90588
0.89608
0.90196
0.90588
0.89608
0.90588
0.90588
0.90196
0.8902
0.89608
0.90196
0.89608
0.88627
0.8902
0.8902
0.89608
0.89608
0.8902
0.88627
0.88627
0.8902
0.89608
0.88627
0.87647
0.88627
0.86078
0.84118
0.83529
0.81176
0.76667
0.7549
0.76667
0.76667
0.7902
0.83137
0.84118
0.87059
0.90588
0.92157
0.92549
0.92549
0.92157
0.93137
0.94118
0.8902
0.6902
0.30392
-0.11176
0.14314
0.82157
1.1627
1.0824
0.99216
0.96078
0.95686
0.95686
0.95686
0.95686
0.95098
0.95098
0.94118
0.93137
0.92549
0.92157
0.92157
0.92549
0.91176
0.90588
0.90588
0.91176
0.90196
0.8902
0.88627
0.87647
0.87647
0.87059
0.86078
0.85686
0.84118
0.82157
0.81569
0.82157
0.83137
0.83137
0.83529
0.86078
0.87059
0.88627
0.88627
0.88627
0.8902
0.8902
0.89608
0.8902
0.88627
0.88627
0.90588
0.89608
0.89608
0.8902
0.8902
0.89608
0.89608
0.89608
0.90196
0.90196
0.89608
0.8902
0.90196
0.89608
0.8902
0.90588
0.90196
0.90196
0.89608
0.90196
0.91176
0.90588
0.89608
0.90588
0.91176
0.90588
0.89608
0.90196
0.89608
0.90588
0.90196
0.90588
0.90196
0.89608
0.90588
0.8902
0.88627
0.8902
0.89608
0.8902
0.88627
0.87647
0.86667
0.83529
0.83137
0.83529
0.7902
0.76078
0.7549
0.76667
0.78039
0.81176
0.84118
0.86078
0.90196
0.91569
0.91569
0.92157
0.93137
0.93137
0.94706
0.95098
0.8451
0.57451
0.12353
-0.13725
0.37059
1.0216
1.1373
1.0118
0.96667
0.95686
0.95686
0.95686
0.95686
0.95686
0.95686
0.95098
0.93725
0.94118
0.92549
0.91569
0.92157
0.92157
0.90588
0.90588
0.90588
0.90196
0.90588
0.88627
0.87059
0.86667
0.87059
0.85686
0.85098
0.84118
0.82157
0.81569
0.81176
0.81176
0.82157
0.83137
0.83529
0.85686
0.86078
0.86667
0.87059
0.88627
0.8902
0.89608
0.8902
0.88627
0.88627
0.87647
0.87059
0.88039
0.87647
0.87647
0.88627
0.87647
0.87059
0.88039
0.88039
0.87647
0.88627
0.88627
0.88039
0.87647
0.88627
0.88627
0.88627
0.88627
0.88039
0.88039
0.88627
0.8902
0.88627
0.88627
0.88627
0.87647
0.87647
0.88039
0.87647
0.86667
0.87059
0.87059
0.87059
0.88039
0.88627
0.87647
0.88039
0.88627
0.88627
0.87647
0.88039
0.86078
0.83529
0.81176
0.81176
0.77059
0.73529
0.74118
0.74118
0.7451
0.7902
0.81569
0.84118
0.88627
0.90588
0.90588
0.90588
0.91176
0.90588
0.92157
0.91176
0.85098
0.62941
0.19412
-0.15686
0.23922
0.96078
1.1314
1.0118
0.95098
0.93725
0.93725
0.94706
0.94118
0.94118
0.94118
0.92549
0.91569
0.91176
0.91569
0.91176
0.90588
0.89608
0.8902
0.89608
0.8902
0.88039
0.88627
0.88039
0.87647
0.86078
0.85686
0.86078
0.8451
0.83529
0.82157
0.81176
0.7902
0.7902
0.80588
0.81176
0.82157
0.84118
0.86078
0.87059
0.88039
0.88039
0.88039
0.88039
0.87647
0.86078
0.86667
0.86667
0.86078
0.86078
0.87059
0.87647
0.87647
0.86667
0.87059
0.86078
0.87059
0.88039
0.87647
0.87059
0.86667
0.86667
0.88039
0.88627
0.88627
0.87059
0.86078
0.87647
0.88039
0.88039
0.87059
0.87647
0.88039
0.87647
0.87647
0.87647
0.88039
0.87059
0.86667
0.87647
0.87059
0.87647
0.88039
0.87059
0.86078
0.86078
0.87059
0.87059
0.87647
0.84118
0.81569
0.81176
0.8
0.76078
0.7451
0.75098
0.75098
0.78627
0.81176
0.83529
0.86667
0.89608
0.91176
0.91569
0.90588
0.90588
0.91569
0.91176
0.87059
0.68627
0.3
-0.10196
-0.10588
0.78627
1.1471
1.0765
0.98235
0.95098
0.93137
0.93137
0.93725
0.94118
0.92549
0.92157
0.90588
0.90588
0.91569
0.90588
0.90588
0.90196
0.88627
0.8902
0.88627
0.88627
0.88039
0.87059
0.86078
0.85686
0.87059
0.86078
0.8451
0.82549
0.80588
0.79608
0.80588
0.8
0.81176
0.81569
0.82549
0.84118
0.86078
0.88627
0.88627
0.8902
0.8902
0.8902
0.88627
0.8902
0.88627
0.87647
0.87059
0.88627
0.88039
0.8902
0.88627
0.88627
0.88039
0.88627
0.88627
0.87059
0.88039
0.88627
0.88627
0.88627
0.88627
0.8902
0.8902
0.88627
0.88627
0.8902
0.89608
0.89608
0.88627
0.8902
0.88627
0.88627
0.90588
0.90196
0.8902
0.88627
0.88627
0.88039
0.88627
0.87647
0.88627
0.8902
0.88627
0.88627
0.88039
0.88039
0.88039
0.86667
0.83137
0.81569
0.83529
0.78039
0.76078
0.7549
0.76667
0.78039
0.81176
0.82157
0.86078
0.90196
0.91176
0.91569
0.92549
0.92157
0.92549
0.93137
0.8902
0.72549
0.37059
-0.076471
-0.14706
0.67647
1.1275
1.1314
0.98235
0.95686
0.94706
0.96078
0.95686
0.95098
0.94118
0.93137
0.93725
0.92549
0.91569
0.92549
0.91569
0.91176
0.90588
0.90588
0.91176
0.89608
0.8902
0.88627
0.88039
0.88039
0.87647
0.86078
0.86078
0.8451
0.83137
0.82157
0.81176
0.8
0.81176
0.83137
0.84118
0.86078
0.87059
0.88627
0.88627
0.88627
0.88627
0.88627
0.8902
0.8902
0.8902
0.89608
0.88627
0.88039
0.88039
0.8902
0.8902
0.8902
0.88627
0.8902
0.88627
0.88627
0.88627
0.90196
0.88627
0.88627
0.88627
0.88627
0.88627
0.8902
0.90196
0.89608
0.8902
0.8902
0.89608
0.88627
0.88627
0.89608
0.89608
0.88627
0.88627
0.8902
0.88627
0.88627
0.8902
0.88627
0.88627
0.88627
0.87647
0.88627
0.88039
0.87647
0.86078
0.84118
0.82157
0.81176
0.81569
0.76667
0.74118
0.75098
0.7549
0.78627
0.82157
0.83529
0.86078
0.8902
0.90588
0.92157
0.92157
0.91569
0.92157
0.93137
0.90588
0.76667
0.44902
-0.011765
-0.13137
0.58039
1.0922
1.1216
0.99216
0.95098
0.95098
0.95686
0.95098
0.94706
0.93725
0.94118
0.94118
0.93725
0.93725
0.92157
0.92157
0.91569
0.90588
0.8902
0.90196
0.8902
0.88627
0.88039
0.87059
0.86078
0.86078
0.86078
0.85686
0.83529
0.83137
0.82157
0.81176
0.81176
0.81176
0.81569
0.83137
0.86078
0.86667
0.87647
0.88627
0.88627
0.88627
0.88627
0.88627
0.8902
0.88627
0.8902
0.90196
0.90196
0.8902
0.8902
0.88627
0.88627
0.88627
0.88627
0.90196
0.90196
0.8902
0.88627
0.89608
0.90588
0.90588
0.90196
0.88627
0.8902
0.89608
0.88627
0.90196
0.90588
0.90588
0.89608
0.90196
0.90588
0.89608
0.89608
0.8902
0.89608
0.89608
0.88627
0.88627
0.90588
0.90196
0.8902
0.8902
0.89608
0.88627
0.88627
0.88627
0.88627
0.89608
0.88039
0.85686
0.83137
0.81176
0.78627
0.7549
0.76078
0.76667
0.77647
0.81569
0.84118
0.86078
0.90196
0.92157
0.92549
0.91569
0.92549
0.93137
0.94118
0.95098
0.87059
0.65098
0.23333
-0.12745
0.20392
0.92157
1.1412
1.0569
0.97647
0.95686
0.95686
0.95686
0.95686
0.94706
0.93725
0.94706
0.95098
0.94118
0.93137
0.93137
0.92157
0.91569
0.91176
0.91176
0.90588
0.90588
0.90196
0.89608
0.8902
0.88627
0.88627
0.87059
0.85686
0.85098
0.83529
0.83137
0.83137
0.82549
0.83137
0.83529
0.8451
0.86078
0.88627
0.88039
0.87647
0.90588
0.90588
0.90196
0.90196
0.90588
0.90588
0.90196
0.90196
0.90196
0.8902
0.88039
0.88039
0.88627
0.89608
0.90588
0.90588
0.90588
0.89608
0.90588
0.8902
0.88627
0.89608
0.88627
0.88627
0.90588
0.91569
0.90588
0.91569
0.90196
0.8902
0.89608
0.90196
0.88627
0.88627
0.8902
0.88627
0.89608
0.90588
0.89608
0.89608
0.8902
0.88627
0.88627
0.88039
0.87647
0.88627
0.88627
0.88627
0.88627
0.88627
0.87059
0.84118
0.82549
0.83529
0.78039
0.76078
0.76078
0.76667
0.78627
0.81569
0.83529
0.86667
0.92157
0.93137
0.91569
0.91569
0.92157
0.90588
0.93137
0.91176
0.78627
0.44902
-0.011765
-0.13137
0.6
1.1176
1.1667
1.0118
0.96078
0.95686
0.95098
0.96078
0.96667
0.93725
0.93137
0.93137
0.95098
0.93137
0.93137
0.92549
0.92157
0.90588
0.90588
0.90588
0.90196
0.89608
0.88627
0.8902
0.88627
0.87647
0.87059
0.86667
0.83529
0.83529
0.83137
0.81569
0.80588
0.81176
0.83137
0.83529
0.85686
0.87647
0.88627
0.88627
0.8902
0.89608
0.89608
0.89608
0.8902
0.90196
0.88627
0.88627
0.90196
0.8902
0.8902
0.90196
0.8902
0.88627
0.8902
0.90196
0.8902
0.90196
0.90588
0.8902
0.8902
0.89608
0.89608
0.8902
0.89608
0.90588
0.91176
0.90588
0.90588
0.90588
0.90196
0.89608
0.8902
0.90196
0.90588
0.91569
0.90196
0.90588
0.91569
0.90588
0.89608
0.89608
0.90588
0.89608
0.8902
0.90588
0.90588
0.90196
0.89608
0.88039
0.87059
0.85098
0.85686
0.81569
0.78627
0.77647
0.77647
0.78039
0.81569
0.83529
0.85686
0.88627
0.91176
0.92157
0.92549
0.92157
0.93725
0.94706
0.95686
0.87647
0.68627
0.3
-0.11176
0.12941
0.85686
1.151
1.0667
0.98235
0.96078
0.96667
0.96078
0.97059
0.95686
0.95686
0.96078
0.95686
0.95098
0.94706
0.93137
0.93137
0.93137
0.91569
0.91569
0.92549
0.92157
0.90588
0.91176
0.88627
0.88627
0.8902
0.87647
0.86667
0.85686
0.84118
0.81569
0.81569
0.82157
0.82549
0.84118
0.85098
0.86667
0.88627
0.8902
0.89608
0.88627
0.91176
0.90588
0.91176
0.91569
0.90196
0.89608
0.91176
0.91176
0.90588
0.90588
0.89608
0.90196
0.90588
0.90588
0.90588
0.90588
0.90196
0.88627
0.88627
0.90588
0.90196
0.90196
0.90588
0.90196
0.90588
0.90588
0.90588
0.90196
0.90588
0.89608
0.90196
0.89608
0.91176
0.91569
0.89608
0.90588
0.89608
0.90588
0.90196
0.90588
0.89608
0.90196
0.90196
0.90196
0.90588
0.90196
0.89608
0.90196
0.89608
0.88039
0.85686
0.83529
0.83529
0.8
0.7549
0.7451
0.76667
0.78039
0.81569
0.83529
0.86078
0.90196
0.93137
0.94118
0.93725
0.93725
0.93725
0.93137
0.92549
0.85098
0.6098
0.16863
-0.12745
0.3
0.99216
1.1314
1.0373
0.97059
0.95686
0.96667
0.96078
0.96667
0.97059
0.95686
0.95686
0.95686
0.94706
0.95098
0.93137
0.93137
0.93137
0.92157
0.91176
0.91569
0.89608
0.89608
0.8902
0.88039
0.87647
0.86667
0.85686
0.8451
0.84118
0.83529
0.81569
0.81176
0.80588
0.81176
0.83529
0.8451
0.86667
0.87059
0.87647
0.88039
0.89608
0.90588
0.90196
0.90196
0.89608
0.88627
0.88627
0.8902
0.89608
0.88627
0.88627
0.88039
0.88627
0.87647
0.88039
0.88627
0.8902
0.88627
0.88627
0.88039
0.87647
0.8902
0.88627
0.8902
0.90196
0.90196
0.89608
0.90196
0.89608
0.90196
0.88039
0.87647
0.90196
0.90196
0.89608
0.90196
0.88627
0.88627
0.88627
0.88627
0.88627
0.8902
0.8902
0.88627
0.88627
0.88627
0.88627
0.88627
0.88627
0.88039
0.8451
0.84118
0.82157
0.81569
0.79608
0.76078
0.75098
0.76078
0.7549
0.81569
0.83529
0.86078
0.8902
0.90588
0.92157
0.91176
0.90588
0.91569
0.93137
0.91569
0.84118
0.6
0.16863
-0.13725
0.2902
0.96667
1.1275
1.0059
0.94118
0.92549
0.92549
0.93137
0.92549
0.92157
0.91176
0.91569
0.92549
0.92157
0.90588
0.88627
0.88627
0.8902
0.87647
0.87059
0.88039
0.88039
0.86667
0.85686
0.86078
0.85686
0.84118
0.83137
0.82549
0.80588
0.7902
0.78039
0.7902
0.78627
0.8
0.81176
0.82549
0.83529
0.85098
0.85686
0.86667
0.86078
0.86078
0.87059
0.88039
0.87059
0.88039
0.88627
0.86667
0.85686
0.86667
0.88039
0.88039
0.86078
0.85098
0.87647
0.87647
0.87647
0.88039
0.87059
0.86667
0.88039
0.87647
0.87059
0.87647
0.86078
0.86078
0.87647
0.87647
0.88627
0.88627
0.87647
0.87647
0.88039
0.87647
0.87059
0.86078
0.86078
0.86667
0.86078
0.86667
0.87647
0.87059
0.88039
0.88627
0.88039
0.86078
0.86078
0.87059
0.87059
0.86078
0.83137
0.80588
0.82549
0.79608
0.7549
0.74118
0.7549
0.75098
0.79608
0.81569
0.85098
0.88039
0.89608
0.89608
0.89608
0.90588
0.91569
0.92157
0.90196
0.8
0.5098
0.058824
-0.11765
0.41961
1.0471
1.1412
1.002
0.94706
0.93137
0.95686
0.95686
0.94706
0.93137
0.93137
0.93137
0.92549
0.92549
0.91569
0.92157
0.92549
0.90588
0.90196
0.91569
0.90588
0.90196
0.89608
0.8902
0.88627
0.86078
0.87647
0.85686
0.83529
0.83529
0.83137
0.81176
0.81569
0.82549
0.82157
0.83529
0.84118
0.85098
0.87059
0.88627
0.88627
0.8902
0.88627
0.88627
0.8902
0.8902
0.88627
0.8902
0.8902
0.88627
0.87647
0.88627
0.88039
0.87647
0.88039
0.88627
0.88627
0.88627
0.88627
0.88627
0.88627
0.88627
0.8902
0.88627
0.8902
0.88627
0.8902
0.88039
0.8902
0.90196
0.8902
0.88627
0.8902
0.8902
0.88627
0.8902
0.89608
0.88627
0.88039
0.87647
0.87647
0.88627
0.88627
0.88627
0.88627
0.8902
0.88627
0.88039
0.88039
0.87647
0.86078
0.8451
0.80588
0.82157
0.80588
0.7549
0.74118
0.7549
0.75098
0.78039
0.81176
0.84118
0.88627
0.90588
0.90588
0.91569
0.91176
0.92157
0.92549
0.93137
0.86078
0.64118
0.2098
-0.14706
0.2098
0.93725
1.1471
1.0373
0.96667
0.95098
0.96078
0.97059
0.97059
0.96078
0.95098
0.93725
0.93137
0.93725
0.94706
0.93725
0.92157
0.91569
0.92157
0.92549
0.90588
0.90588
0.8902
0.87059
0.88627
0.89608
0.88627
0.86078
0.85098
0.83529
0.83529
0.82549
0.80588
0.81569
0.82549
0.83529
0.84118
0.86078
0.87059
0.88627
0.88627
0.89608
0.90196
0.8902
0.89608
0.88627
0.88627
0.89608
0.90588
0.90196
0.89608
0.8902
0.88627
0.88627
0.87647
0.87059
0.90196
0.90196
0.90588
0.90196
0.89608
0.8902
0.88627
0.89608
0.90588
0.90196
0.88627
0.88039
0.8902
0.90196
0.91569
0.90588
0.90588
0.89608
0.8902
0.90196
0.8902
0.88039
0.88627
0.8902
0.88627
0.89608
0.88627
0.89608
0.90196
0.89608
0.89608
0.8902
0.8902
0.8902
0.88627
0.86078
0.8451
0.82157
0.82549
0.7902
0.76078
0.75098
0.76667
0.78039
0.82549
0.83529
0.86078
0.90196
0.92549
0.93137
0.93137
0.92549
0.93137
0.93725
0.92157
0.83137
0.55098
0.1098
-0.096078
0.4451
1.0569
1.1412
1.0157
0.96078
0.95686
0.96078
0.97647
0.97059
0.96667
0.95098
0.95686
0.95686
0.94706
0.95098
0.95098
0.94118
0.93137
0.93137
0.93137
0.91569
0.90588
0.90196
0.88627
0.88627
0.8902
0.86667
0.85098
0.84118
0.8451
0.83529
0.82549
0.82157
0.82157
0.82157
0.82549
0.85686
0.87647
0.88627
0.88627
0.88627
0.87647
0.89608
0.91569
0.91176
0.90196
0.8902
0.89608
0.89608
0.88627
0.87647
0.8902
0.90196
0.90588
0.89608
0.89608
0.8902
0.88627
0.88627
0.8902
0.8902
0.88627
0.8902
0.90196
0.90588
0.8902
0.89608
0.89608
0.8902
0.88039
0.88627
0.88627
0.89608
0.90196
0.88627
0.88627
0.90196
0.90588
0.88039
0.88039
0.88627
0.88627
0.87059
0.86667
0.88627
0.88627
0.8902
0.87647
0.87059
0.86667
0.86078
0.84118
0.8
0.82157
0.79608
0.76078
0.74118
0.7549
0.7549
0.8
0.81569
0.83529
0.87647
0.90588
0.90588
0.91176
0.91569
0.91176
0.92157
0.90588
0.83529
0.63529
0.23333
-0.13137
0.22941
0.91176
1.1471
1.0471
0.96667
0.95686
0.95686
0.93137
0.92549
0.95098
0.95686
0.95098
0.93725
0.93137
0.92549
0.92157
0.91176
0.91569
0.90588
0.89608
0.89608
0.89608
0.8902
0.88627
0.87647
0.85686
0.86078
0.86667
0.86078
0.85098
0.82549
0.81569
0.81569
0.82157
0.81569
0.83529
0.84118
0.84118
0.87059
0.8902
0.89608
0.89608
0.90196
0.89608
0.90196
0.8902
0.88627
0.90196
0.8902
0.89608
0.90588
0.88627
0.90196
0.90588
0.8902
0.88627
0.89608
0.90588
0.90196
0.8902
0.88039
0.87647
0.90196
0.88039
0.90588
0.90588
0.90196
0.8902
0.88039
0.88039
0.89608
0.90588
0.90588
0.8902
0.88627
0.88039
0.89608
0.90588
0.89608
0.90196
0.88627
0.88039
0.8902
0.90196
0.88627
0.88627
0.89608
0.90196
0.8902
0.88627
0.87059
0.86078
0.84118
0.83529
0.81569
0.76078
0.74118
0.77647
0.78039
0.79608
0.82157
0.84118
0.88039
0.91176
0.91569
0.92157
0.92549
0.90588
0.91176
0.93137
0.8902
0.71569
0.34902
-0.092157
-0.11176
0.77059
1.1373
1.0667
0.98627
0.94706
0.94118
0.97647
0.97059
0.97647
0.96078
0.95686
0.95686
0.95098
0.94118
0.93137
0.92549
0.90588
0.91176
0.92549
0.91569
0.90588
0.90196
0.89608
0.8902
0.88627
0.87647
0.87059
0.86078
0.84118
0.81176
0.80588
0.80588
0.82157
0.82549
0.81569
0.85098
0.86667
0.88039
0.88627
0.88039
0.8902
0.89608
0.88627
0.89608
0.90196
0.89608
0.90588
0.90196
0.89608
0.90196
0.89608
0.88627
0.88627
0.8902
0.88039
0.87647
0.88627
0.90196
0.8902
0.8902
0.88627
0.88627
0.88039
0.8902
0.88039
0.88039
0.88039
0.8902
0.90196
0.90196
0.90588
0.8902
0.88627
0.88627
0.88627
0.88627
0.8902
0.89608
0.88039
0.87647
0.88627
0.8902
0.8902
0.88627
0.88039
0.87647
0.88039
0.88627
0.88039
0.87647
0.87647
0.86078
0.82549
0.81569
0.79608
0.76078
0.74118
0.7549
0.75098
0.78039
0.81176
0.83529
0.86667
0.90196
0.90588
0.91176
0.91176
0.91569
0.93137
0.93137
0.8902
0.71569
0.3451
-0.092157
-0.13725
0.76078
1.1314
1.0667
0.98235
0.95686
0.96667
0.96078
0.95686
0.96078
0.95686
0.95686
0.96078
0.95686
0.94706
0.93137
0.93137
0.93725
0.93137
0.91569
0.91176
0.91569
0.90588
0.90196
0.89608
0.89608
0.8902
0.87647
0.85686
0.8451
0.84118
0.82157
0.80588
0.81569
0.82157
0.82157
0.83529
0.86078
0.87647
0.88627
0.87647
0.88627
0.8902
0.88627
0.8902
0.88627
0.88627
0.88627
0.88627
0.8902
0.89608
0.88627
0.88627
0.88627
0.88039
0.88627
0.88627
0.8902
0.8902
0.89608
0.88627
0.87647
0.87059
0.88627
0.89608
0.8902
0.8902
0.8902
0.89608
0.90196
0.88627
0.8902
0.89608
0.88627
0.88627
0.88627
0.89608
0.88627
0.88039
0.87647
0.88039
0.87059
0.87059
0.88627
0.90196
0.90196
0.88039
0.87059
0.88039
0.8902
0.88627
0.86667
0.84118
0.81569
0.81176
0.82157
0.77059
0.75098
0.7549
0.75098
0.77059
0.81569
0.83529
0.87059
0.90588
0.90588
0.90588
0.91569
0.92549
0.92549
0.93137
0.90588
0.76667
0.40392
-0.047059
-0.13137
0.69608
1.1275
1.1314
0.99216
0.95686
0.95686
0.96667
0.96078
0.95686
0.94706
0.95686
0.96078
0.94706
0.95098
0.93137
0.92157
0.91569
0.92157
0.91569
0.90588
0.89608
0.8902
0.88627
0.89608
0.87059
0.86667
0.88039
0.86667
0.8451
0.83529
0.82157
0.81176
0.80588
0.8
0.81569
0.82549
0.85686
0.87059
0.87647
0.88627
0.89608
0.89608
0.89608
0.89608
0.88627
0.88039
0.88627
0.88627
0.88627
0.89608
0.90196
0.8902
0.8902
0.88627
0.90196
0.89608
0.88627
0.87647
0.88627
0.90588
0.90196
0.90588
0.88627
0.8902
0.90196
0.89608
0.8902
0.8902
0.89608
0.8902
0.88627
0.89608
0.89608
0.90588
0.89608
0.88627
0.88627
0.88627
0.89608
0.88627
0.88039
0.88627
0.87647
0.88627
0.89608
0.88039
0.87059
0.88039
0.88627
0.87647
0.85098
0.83137
0.82157
0.8
0.76078
0.74118
0.75098
0.7451
0.77647
0.81569
0.84118
0.87647
0.91569
0.90588
0.90196
0.90588
0.91569
0.92157
0.90588
0.87647
0.72157
0.32941
-0.10588
-0.12745
0.77647
1.151
1.0824
0.96667
0.93137
0.95686
0.96078
0.96078
0.95686
0.94118
0.92157
0.93725
0.94706
0.93137
0.92157
0.92549
0.91176
0.90196
0.90588
0.90588
0.90588
0.90196
0.89608
0.89608
0.87647
0.87059
0.88039
0.86667
0.84118
0.82549
0.82157
0.83137
0.83137
0.82157
0.83137
0.83529
0.85686
0.86667
0.88039
0.88627
0.88627
0.88627
0.90588
0.90588
0.88627
0.88627
0.88627
0.89608
0.90196
0.8902
0.89608
0.88627
0.87059
0.87647
0.89608
0.90196
0.8902
0.89608
0.8902
0.88627
0.88627
0.89608
0.90196
0.88627
0.88039
0.8902
0.89608
0.90588
0.89608
0.90196
0.88627
0.88627
0.88627
0.90196
0.88627
0.88039
0.87647
0.88627
0.88039
0.87647
0.88627
0.87647
0.87059
0.87059
0.88039
0.88039
0.87059
0.86667
0.88627
0.86667
0.83529
0.81569
0.83137
0.77647
0.7549
0.74118
0.7451
0.74118
0.82157
0.84118
0.86078
0.89608
0.90588
0.91176
0.92157
0.91569
0.91176
0.92157
0.91176
0.7902
0.50588
0.043137
-0.12745
0.42941
1.051
1.1275
1.0118
0.96078
0.95686
0.95686
0.94118
0.95098
0.94706
0.95098
0.95686
0.93725
0.92549
0.93137
0.92549
0.93137
0.92157
0.91569
0.91176
0.90588
0.91176
0.90588
0.8902
0.88627
0.88039
0.85686
0.85098
0.85686
0.85686
0.83529
0.81176
0.81176
0.81569
0.81176
0.82157
0.8451
0.86078
0.86078
0.88627
0.8902
0.88627
0.88627
0.8902
0.89608
0.88627
0.88627
0.87647
0.87647
0.88627
0.8902
0.8902
0.88627
0.87647
0.88039
0.88039
0.88627
0.87647
0.88627
0.88627
0.88039
0.87647
0.88039
0.87647
0.88039
0.88627
0.88627
0.88627
0.88039
0.88627
0.8902
0.88627
0.87647
0.87059
0.87059
0.87647
0.86078
0.87059
0.87647
0.87059
0.87647
0.88039
0.86667
0.86078
0.86078
0.87059
0.87059
0.86667
0.86078
0.86667
0.8451
0.81176
0.79608
0.81176
0.77059
0.73137
0.74118
0.74118
0.75098
0.79608
0.81569
0.83529
0.87059
0.8902
0.8902
0.90196
0.90588
0.90588
0.91176
0.90196
0.83137
0.60588
0.17451
-0.14706
0.25882
0.96078
1.1059
1.0118
0.95686
0.94706
0.95686
0.96078
0.93725
0.95686
0.97647
0.96667
0.95686
0.94706
0.94706
0.94706
0.93137
0.93725
0.93137
0.93137
0.92549
0.92157
0.91176
0.91176
0.90196
0.88039
0.87647
0.8902
0.87059
0.86667
0.87059
0.85098
0.83529
0.83529
0.8451
0.8451
0.86078
0.87059
0.88627
0.88627
0.88627
0.88627
0.8902
0.90588
0.90196
0.89608
0.90588
0.8902
0.89608
0.8902
0.88627
0.88627
0.8902
0.87647
0.87059
0.88039
0.88627
0.88039
0.88039
0.88627
0.88039
0.88627
0.8902
0.8902
0.88627
0.88627
0.88627
0.87059
0.86667
0.88039
0.88627
0.88039
0.87647
0.88039
0.88627
0.88039
0.88039
0.88627
0.87647
0.87059
0.88039
0.88039
0.87059
0.86078
0.87647
0.87059
0.87059
0.87059
0.86667
0.86667
0.86078
0.84118
0.82549
0.80588
0.81569
0.78627
0.75098
0.73137
0.73137
0.73529
0.78627
0.81176
0.83529
0.87059
0.90588
0.90588
0.89608
0.8902
0.90588
0.91176
0.92549
0.85686
0.64118
0.23333
-0.12745
0.18824
0.90196
1.1314
1.0275
0.95686
0.93137
0.95098
0.93725
0.92549
0.93725
0.94706
0.93137
0.93725
0.92549
0.92157
0.92549
0.91569
0.91176
0.8902
0.88627
0.89608
0.8902
0.88627
0.8902
0.88627
0.87647
0.87059
0.86078
0.8451
0.84118
0.83529
0.82157
0.80588
0.8
0.81176
0.81176
0.83137
0.86078
0.86667
0.86078
0.87647
0.88627
0.88627
0.88039
0.87647
0.88627
0.89608
0.8902
0.88627
0.86667
0.88039
0.88627
0.88627
0.88627
0.88627
0.88627
0.88039
0.88627
0.89608
0.88627
0.88627
0.8902
0.88627
0.8902
0.89608
0.8902
0.8902
0.90196
0.8902
0.86667
0.86078
0.88627
0.88627
0.90588
0.88627
0.87647
0.8902
0.8902
0.88627
0.88627
0.88039
0.87647
0.88627
0.8902
0.88627
0.88039
0.87647
0.88627
0.87647
0.87059
0.87647
0.88039
0.85686
0.84118
0.82549
0.83529
0.79608
0.76078
0.75098
0.74118
0.7549
0.81176
0.83137
0.84118
0.89608
0.92549
0.93137
0.91569
0.92157
0.92549
0.94118
0.94706
0.85686
0.6098
0.15882
-0.14706
0.27451
0.98627
1.1667
1.051
0.98627
0.96078
0.96667
0.96667
0.95686
0.94118
0.95098
0.96667
0.95686
0.94706
0.94118
0.93137
0.92549
0.92157
0.91569
0.90588
0.90588
0.92157
0.92549
0.91176
0.8902
0.87647
0.88627
0.89608
0.87059
0.86078
0.85098
0.84118
0.83529
0.82549
0.83137
0.83529
0.84118
0.83137
0.86667
0.89608
0.90588
0.90196
0.91176
0.90588
0.8902
0.88627
0.90196
0.87647
0.88627
0.90588
0.90588
0.90196
0.89608
0.8902
0.89608
0.88627
0.88039
0.90196
0.8902
0.90588
0.89608
0.89608
0.90196
0.89608
0.90196
0.90588
0.89608
0.88627
0.89608
0.91176
0.91176
0.90588
0.88627
0.8902
0.89608
0.90196
0.90588
0.88627
0.88627
0.8902
0.88627
0.88627
0.89608
0.90196
0.90196
0.90196
0.90588
0.88627
0.88627
0.8902
0.89608
0.88627
0.87059
0.86078
0.8451
0.83137
0.83529
0.77059
0.7549
0.76667
0.76667
0.78627
0.82549
0.85098
0.88627
0.91569
0.91569
0.92157
0.93137
0.93725
0.93725
0.94706
0.89608
0.73137
0.3549
-0.096078
-0.12745
0.7902
1.151
1.0824
0.99608
0.96078
0.97059
0.98235
0.97647
0.96667
0.95686
0.95098
0.95098
0.95686
0.95098
0.93725
0.94706
0.93725
0.93137
0.93137
0.92549
0.90588
0.90588
0.90588
0.89608
0.88627
0.88627
0.8902
0.88039
0.86078
0.84118
0.82549
0.81569
0.83529
0.82549
0.83137
0.84118
0.85098
0.8451
0.87647
0.90196
0.90588
0.90588
0.90196
0.89608
0.90196
0.90588
0.89608
0.90196
0.8902
0.87059
0.8902
0.89608
0.8902
0.90196
0.89608
0.89608
0.90196
0.88627
0.90196
0.90588
0.90196
0.8902
0.89608
0.90588
0.90196
0.90588
0.91176
0.90588
0.8902
0.89608
0.90196
0.91176
0.88627
0.87647
0.87059
0.89608
0.90196
0.90588
0.89608
0.89608
0.90196
0.89608
0.8902
0.88627
0.88627
0.90196
0.90588
0.90196
0.88627
0.88627
0.8902
0.89608
0.87059
0.85098
0.82549
0.82157
0.79608
0.76078
0.74118
0.73529
0.76667
0.81176
0.83529
0.85098
0.88627
0.91176
0.92157
0.92157
0.93137
0.92549
0.92157
0.90196
0.8451
0.6
0.1549
-0.11176
0.33922
1.0157
1.1275
1.0118
0.96078
0.95686
0.96078
0.95686
0.95098
0.95686
0.95686
0.96078
0.94706
0.93137
0.92549
0.92157
0.93137
0.93137
0.91176
0.89608
0.89608
0.90588
0.90588
0.89608
0.88627
0.88627
0.86667
0.86078
0.85686
0.8451
0.83529
0.81176
0.82157
0.83137
0.83529
0.82549
0.83529
0.85098
0.87059
0.88039
0.87059
0.88627
0.88627
0.90196
0.89608
0.88627
0.8902
0.88039
0.88627
0.88039
0.88627
0.8902
0.88627
0.87059
0.88039
0.90588
0.90588
0.89608
0.88627
0.87647
0.87647
0.88627
0.8902
0.90196
0.8902
0.8902
0.88627
0.88627
0.88627
0.90196
0.8902
0.88627
0.88627
0.87647
0.89608
0.90196
0.8902
0.89608
0.88627
0.88627
0.8902
0.8902
0.89608
0.8902
0.88039
0.86078
0.87059
0.88627
0.90196
0.8902
0.88039
0.86667
0.85098
0.81569
0.81176
0.77647
0.76667
0.7549
0.76667
0.76667
0.80588
0.82157
0.84118
0.88039
0.90588
0.90588
0.90196
0.93137
0.93137
0.93137
0.91569
0.8451
0.61961
0.18824
-0.13137
0.26471
0.95686
1.1627
1.0471
0.97647
0.95686
0.95098
0.95686
0.95686
0.94706
0.94118
0.93137
0.91569
0.91176
0.90588
0.91569
0.93137
0.90588
0.90196
0.91176
0.89608
0.89608
0.88627
0.88039
0.87059
0.86667
0.86667
0.87059
0.86078
0.85686
0.83137
0.82549
0.81569
0.80588
0.79608
0.81176
0.82157
0.8451
0.87647
0.88627
0.88627
0.87647
0.88627
0.88627
0.88039
0.86667
0.86667
0.86667
0.88627
0.89608
0.88627
0.8902
0.88627
0.88627
0.88627
0.86667
0.87647
0.88039
0.87647
0.88627
0.88627
0.88627
0.8902
0.89608
0.87647
0.88039
0.8902
0.90196
0.89608
0.88627
0.88627
0.88627
0.88039
0.8902
0.88627
0.8902
0.88039
0.88627
0.88627
0.8902
0.89608
0.88627
0.87059
0.86078
0.88039
0.88627
0.88627
0.87647
0.87647
0.88039
0.85686
0.82549
0.81569
0.83137
0.76667
0.74118
0.76667
0.75098
0.77059
0.80588
0.8451
0.88039
0.90588
0.92549
0.93137
0.90196
0.90196
0.91569
0.93725
0.8902
0.70588
0.32941
-0.10588
-0.12157
0.77059
1.1314
1.051
0.96078
0.95098
0.96078
0.97059
0.96667
0.96667
0.95686
0.95686
0.94118
0.92549
0.93137
0.93725
0.90588
0.90588
0.92157
0.93137
0.92157
0.90588
0.89608
0.90196
0.88039
0.87647
0.86667
0.85686
0.86667
0.85686
0.8451
0.83529
0.83137
0.82157
0.81569
0.83529
0.83529
0.83529
0.85098
0.87647
0.88627
0.8902
0.89608
0.88627
0.90196
0.89608
0.89608
0.89608
0.88627
0.88627
0.88627
0.89608
0.88627
0.8902
0.88039
0.8902
0.88627
0.89608
0.90196
0.88627
0.88627
0.88627
0.88627
0.89608
0.89608
0.88627
0.88627
0.88627
0.88627
0.90196
0.8902
0.89608
0.88627
0.88627
0.88627
0.89608
0.8902
0.88627
0.88039
0.88627
0.88627
0.88627
0.89608
0.90196
0.88039
0.87647
0.87647
0.87647
0.88039
0.87647
0.86078
0.8451
0.81176
0.81176
0.78039
0.76078
0.7549
0.76078
0.7549
0.7902
0.82157
0.85686
0.90196
0.91176
0.90588
0.91569
0.91176
0.91569
0.93137
0.94118
0.8451
0.57059
0.14314
-0.13725
0.33922
1.0059
1.1275
1.0216
0.96078
0.95686
0.96078
0.96078
0.96667
0.95686
0.96078
0.95098
0.94706
0.94706
0.95098
0.93137
0.93137
0.91176
0.90588
0.91569
0.91176
0.90588
0.90588
0.90196
0.88039
0.86078
0.87059
0.88039
0.86078
0.85686
0.83529
0.81176
0.8
0.81569
0.82157
0.82549
0.82549
0.83529
0.85686
0.88627
0.8902
0.8902
0.89608
0.88627
0.88627
0.88627
0.89608
0.89608
0.88627
0.88039
0.87647
0.88627
0.88627
0.88039
0.88627
0.8902
0.88627
0.88039
0.88627
0.88627
0.88627
0.88039
0.88627
0.8902
0.88627
0.8902
0.88627
0.88627
0.90196
0.8902
0.90196
0.90588
0.88627
0.88627
0.88039
0.89608
0.90588
0.90196
0.8902
0.88627
0.87647
0.87647
0.87059
0.88039
0.88627
0.8902
0.87647
0.87059
0.88039
0.88627
0.85686
0.82549
0.81176
0.81569
0.77059
0.7451
0.75098
0.7451
0.77059
0.81176
0.83529
0.86078
0.89608
0.90588
0.91569
0.91176
0.91176
0.92549
0.93137
0.90196
0.82157
0.5549
0.12941
-0.11176
0.42549
1.0471
1.1412
1.0118
0.95686
0.96078
0.96667
0.94706
0.94706
0.96078
0.96667
0.95686
0.94706
0.93137
0.93137
0.93725
0.93137
0.92549
0.91569
0.92157
0.90196
0.90588
0.89608
0.90196
0.89608
0.90196
0.86667
0.86078
0.87059
0.85686
0.83529
0.82549
0.83137
0.81569
0.82157
0.82549
0.83529
0.85686
0.88627
0.8902
0.90196
0.90588
0.90196
0.90588
0.8902
0.88627
0.88627
0.8902
0.90588
0.8902
0.8902
0.8902
0.90196
0.90196
0.88627
0.8902
0.89608
0.90196
0.89608
0.90196
0.90588
0.90588
0.8902
0.90588
0.90588
0.90588
0.90588
0.89608
0.8902
0.89608
0.90588
0.90196
0.90196
0.90588
0.90196
0.89608
0.88627
0.88627
0.88627
0.89608
0.90196
0.8902
0.90196
0.89608
0.88627
0.88627
0.88039
0.87647
0.8902
0.88039
0.85686
0.82549
0.81569
0.78627
0.77059
0.76667
0.77647
0.77059
0.7902
0.81569
0.83529
0.87647
0.90588
0.88627
0.8902
0.93137
0.94118
0.93137
0.91569
0.87647
0.7098
0.32353
-0.10588
-0.11176
0.81176
1.151
1.0608
0.98235
0.95686
0.96667
0.96667
0.95686
0.95098
0.95686
0.94706
0.93725
0.93137
0.92549
0.90588
0.92549
0.91176
0.91176
0.91569
0.90588
0.90196
0.90588
0.89608
0.8902
0.88039
0.86078
0.86667
0.87059
0.87059
0.85686
0.83137
0.82157
0.83529
0.82549
0.83529
0.84118
0.85098
0.86078
0.88627
0.90588
0.90196
0.90196
0.8902
0.88627
0.89608
0.90588
0.90588
0.89608
0.88627
0.88627
0.87647
0.88627
0.89608
0.90196
0.88627
0.90196
0.88039
0.87647
0.88627
0.89608
0.88627
0.88627
0.88039
0.90196
0.90588
0.89608
0.90196
0.90588
0.90196
0.90196
0.90196
0.89608
0.90196
0.8902
0.90588
0.89608
0.90588
0.89608
0.88627
0.88627
0.89608
0.88627
0.88627
0.88627
0.8902
0.90588
0.88627
0.87647
0.88039
0.88627
0.87647
0.8451
0.82549
0.81176
0.77059
0.76078
0.77059
0.76667
0.76667
0.8
0.82549
0.85686
0.88039
0.89608
0.92157
0.93137
0.91569
0.92157
0.93725
0.92549
0.82157
0.52941
0.07451
-0.13725
0.44902
1.0765
1.1569
1.0157
0.96667
0.95686
0.96667
0.96667
0.97647
0.96078
0.95098
0.93725
0.94118
0.94118
0.93137
0.92549
0.93137
0.92157
0.91569
0.92157
0.92549
0.90588
0.8902
0.88627
0.89608
0.88627
0.88039
0.86667
0.85686
0.85098
0.8451
0.83137
0.81176
0.81569
0.81176
0.83137
0.85686
0.86667
0.87647
0.88627
0.88039
0.88627
0.89608
0.90588
0.8902
0.88627
0.87647
0.8902
0.89608
0.90196
0.89608
0.8902
0.88627
0.88627
0.89608
0.8902
0.8902
0.88627
0.88627
0.88627
0.88627
0.8902
0.8902
0.88627
0.88627
0.87647
0.8902
0.90588
0.89608
0.88627
0.88039
0.87647
0.88039
0.8902
0.8902
0.8902
0.89608
0.88039
0.87647
0.87059
0.88627
0.8902
0.89608
0.90196
0.8902
0.87647
0.87059
0.88627
0.88039
0.88627
0.88039
0.86078
0.83137
0.80588
0.82157
0.78627
0.76078
0.75098
0.74118
0.7451
0.8
0.83529
0.85098
0.89608
0.91176
0.92157
0.92157
0.92157
0.92549
0.92157
0.93137
0.83529
0.5902
0.1549
-0.13137
0.31961
0.99608
1.1059
1.0157
0.97059
0.96078
0.95098
0.95098
0.94706
0.96078
0.95686
0.95686
0.94706
0.94118
0.92549
0.91569
0.92157
0.91569
0.92549
0.92157
0.92157
0.91176
0.90196
0.89608
0.88039
0.87647
0.87059
0.8451
0.83529
0.86078
0.8451
0.83137
0.81569
0.81569
0.83529
0.83137
0.83529
0.8451
0.86078
0.87647
0.88039
0.88627
0.89608
0.90196
0.89608
0.8902
0.88627
0.8902
0.90196
0.89608
0.88627
0.89608
0.88627
0.8902
0.8902
0.90196
0.89608
0.89608
0.88627
0.88039
0.8902
0.89608
0.90588
0.91176
0.90588
0.90588
0.90196
0.90588
0.90196
0.89608
0.90196
0.90588
0.89608
0.8902
0.91569
0.92157
0.90588
0.90588
0.90588
0.90196
0.90588
0.89608
0.88627
0.87647
0.88039
0.89608
0.90588
0.90196
0.89608
0.88627
0.88627
0.88039
0.86078
0.83137
0.82549
0.7902
0.7549
0.76078
0.78627
0.78039
0.81569
0.84118
0.86667
0.90196
0.92549
0.91569
0.92157
0.93725
0.93137
0.93137
0.92549
0.86667
0.65098
0.22353
-0.11176
0.26471
0.96078
1.151
1.0412
0.98627
0.96667
0.96078
0.97059
0.95686
0.95686
0.95686
0.95686
0.95098
0.93137
0.93137
0.93725
0.93137
0.92549
0.91176
0.91176
0.91176
0.90588
0.87647
0.88039
0.88627
0.89608
0.88627
0.87647
0.85686
0.84118
0.83529
0.83529
0.82549
0.82157
0.81176
0.80588
0.82549
0.85686
0.88627
0.8902
0.89608
0.8902
0.8902
0.90196
0.90196
0.90588
0.90196
0.8902
0.8902
0.90196
0.90196
0.8902
0.88627
0.87647
0.90196
0.90588
0.8902
0.8902
0.89608
0.88627
0.89608
0.90196
0.90588
0.90196
0.89608
0.89608
0.90196
0.90588
0.90588
0.90588
0.90196
0.90588
0.91176
0.90588
0.90196
0.90196
0.88627
0.89608
0.91176
0.90196
0.8902
0.89608
0.89608
0.88627
0.90196
0.89608
0.89608
0.88039
0.86078
0.88627
0.8902
0.86667
0.8451
0.84118
0.80588
0.76667
0.75098
0.76667
0.76078
0.78039
0.81176
0.8451
0.88627
0.89608
0.91569
0.92157
0.91569
0.91176
0.92157
0.92549
0.84118
0.62549
0.18824
-0.14706
0.22941
0.94118
1.1569
1.0412
0.96078
0.94706
0.94118
0.95098
0.94706
0.94118
0.92549
0.91569
0.93137
0.94118
0.93725
0.92549
0.90196
0.89608
0.91176
0.90588
0.89608
0.8902
0.88039
0.87647
0.88039
0.88627
0.87647
0.87059
0.85686
0.83529
0.83529
0.82549
0.81176
0.81176
0.81176
0.82157
0.83529
0.84118
0.86078
0.87647
0.88039
0.88627
0.88039
0.88627
0.89608
0.88627
0.88627
0.88627
0.87647
0.87059
0.88627
0.86667
0.88627
0.88627
0.88627
0.88627
0.88627
0.88039
0.87647
0.87647
0.88039
0.88627
0.88627
0.8902
0.88039
0.88627
0.8902
0.88627
0.8902
0.8902
0.88627
0.88627
0.88627
0.88627
0.88627
0.88627
0.87059
0.88039
0.8902
0.88039
0.88627
0.88627
0.8902
0.88627
0.88627
0.88039
0.88627
0.87059
0.86667
0.86667
0.85686
0.83137
0.81176
0.82157
0.76078
0.73137
0.7451
0.7549
0.76667
0.80588
0.83137
0.85686
0.89608
0.90588
0.8902
0.90588
0.91176
0.90588
0.92157
0.89608
0.74118
0.41961
-0.037255
-0.15098
0.59608
1.0961
1.1118
0.98235
0.94118
0.94706
0.94118
0.95098
0.94706
0.94118
0.93137
0.93137
0.91569
0.91176
0.91569
0.90588
0.90196
0.89608
0.91176
0.89608
0.90588
0.8902
0.88627
0.88039
0.87059
0.86667
0.86078
0.85098
0.83529
0.83137
0.82157
0.81176
0.7902
0.79608
0.81176
0.81176
0.81569
0.8451
0.86078
0.87059
0.87647
0.87059
0.88039
0.88627
0.88039
0.86667
0.86078
0.86667
0.87059
0.87647
0.87059
0.86667
0.87647
0.88627
0.87059
0.87647
0.87059
0.88627
0.88039
0.87647
0.87647
0.88627
0.88627
0.88627
0.8902
0.88627
0.8902
0.8902
0.8902
0.88039
0.88627
0.8902
0.88627
0.88627
0.87647
0.87059
0.88039
0.87647
0.88039
0.88627
0.88039
0.88039
0.88039
0.86667
0.88039
0.88627
0.88627
0.86667
0.86078
0.87059
0.85686
0.83137
0.79608
0.79608
0.76667
0.7451
0.74118
0.76078
0.75098
0.79608
0.82157
0.85098
0.87647
0.90588
0.91176
0.90588
0.92157
0.91569
0.92549
0.90588
0.81176
0.55098
0.098039
-0.11765
0.3902
1.0314
1.1275
0.99216
0.95686
0.95686
0.96078
0.95686
0.95098
0.95686
0.94118
0.93137
0.93725
0.93137
0.92549
0.91569
0.91176
0.90196
0.89608
0.8902
0.90196
0.88627
0.88039
0.88627
0.88627
0.88627
0.87647
0.86667
0.85098
0.83529
0.82549
0.81176
0.81176
0.81569
0.81176
0.81176
0.82549
0.83529
0.8451
0.86667
0.88039
0.88039
0.88627
0.8902
0.8902
0.88627
0.88627
0.8902
0.88627
0.86667
0.86667
0.88039
0.88627
0.87647
0.87647
0.88039
0.88627
0.87647
0.88627
0.88627
0.88627
0.88627
0.89608
0.88627
0.88627
0.87059
0.88039
0.8902
0.90196
0.88627
0.87059
0.87647
0.88627
0.88627
0.88627
0.88627
0.88627
0.88627
0.87059
0.87647
0.88627
0.8902
0.88627
0.86078
0.86078
0.85686
0.87647
0.88627
0.8902
0.87647
0.85098
0.83137
0.82549
0.80588
0.77059
0.74118
0.74118
0.75098
0.77059
0.80588
0.8451
0.88039
0.89608
0.8902
0.92157
0.92157
0.91176
0.91176
0.92157
0.8902
0.71569
0.32941
-0.096078
-0.10588
0.78627
1.1412
1.0725
0.98627
0.95686
0.95686
0.96078
0.96667
0.95098
0.94706
0.95686
0.94706
0.94118
0.93725
0.93137
0.92549
0.92157
0.93137
0.92549
0.92157
0.90588
0.89608
0.89608
0.90588
0.88627
0.88039
0.86667
0.86667
0.86078
0.85098
0.83529
0.82157
0.82157
0.82549
0.83137
0.82549
0.85686
0.86667
0.87647
0.88627
0.88039
0.88627
0.8902
0.8902
0.90196
0.89608
0.8902
0.8902
0.89608
0.88627
0.8902
0.8902
0.89608
0.88627
0.87647
0.88627
0.89608
0.8902
0.8902
0.88627
0.8902
0.88627
0.88627
0.89608
0.8902
0.89608
0.90196
0.90588
0.89608
0.88627
0.88627
0.89608
0.90196
0.88627
0.88627
0.88627
0.89608
0.90588
0.88627
0.8902
0.88627
0.8902
0.88627
0.88627
0.89608
0.89608
0.8902
0.89608
0.88627
0.87647
0.86667
0.8451
0.82549
0.82549
0.78039
0.75098
0.75098
0.75098
0.77647
0.83137
0.84118
0.85686
0.90196
0.91176
0.91569
0.92157
0.93137
0.93137
0.92549
0.91176
0.8
0.50588
0.043137
-0.13137
0.48039
1.0667
1.1275
0.99608
0.96667
0.95686
0.96078
0.96667
0.95686
0.94706
0.93137
0.93725
0.94118
0.93137
0.91176
0.90588
0.92549
0.92549
0.91176
0.90588
0.90196
0.88627
0.8902
0.88627
0.87059
0.86667
0.86078
0.85098
0.8451
0.83529
0.83137
0.82157
0.8
0.8
0.81176
0.81176
0.82157
0.84118
0.85686
0.86078
0.87059
0.87647
0.87059
0.87647
0.88627
0.88627
0.88627
0.88627
0.88627
0.87647
0.86667
0.87059
0.87647
0.87647
0.88039
0.86667
0.86667
0.87059
0.86078
0.87059
0.88627
0.8902
0.88039
0.88039
0.88627
0.88627
0.88039
0.88627
0.88039
0.87647
0.88039
0.88039
0.88039
0.88627
0.87647
0.87059
0.87059
0.88039
0.88039
0.88039
0.88039
0.88039
0.88627
0.88627
0.88039
0.87647
0.87059
0.86078
0.87059
0.86078
0.87059
0.85098
0.83137
0.81176
0.81176
0.77647
0.73529
0.73137
0.74118
0.76078
0.8
0.81569
0.83529
0.88039
0.90196
0.90588
0.89608
0.90588
0.91569
0.92549
0.90588
0.80588
0.52941
0.068627
-0.12745
0.42549
1.0471
1.1373
0.99608
0.95098
0.93725
0.95686
0.95098
0.95686
0.95686
0.94706
0.93137
0.92549
0.91569
0.92549
0.93725
0.92157
0.91176
0.90588
0.90588
0.90588
0.88627
0.88039
0.8902
0.88627
0.88627
0.86667
0.86667
0.85686
0.83529
0.82549
0.82157
0.81569
0.82157
0.81569
0.82157
0.83137
0.85686
0.87059
0.88627
0.88627
0.88627
0.88627
0.8902
0.89608
0.88627
0.8902
0.8902
0.88627
0.89608
0.90196
0.88039
0.88039
0.88627
0.88627
0.88627
0.88627
0.89608
0.88627
0.88039
0.89608
0.90588
0.90196
0.8902
0.90196
0.8902
0.88627
0.90588
0.90588
0.88627
0.88627
0.88627
0.89608
0.8902
0.88627
0.89608
0.89608
0.8902
0.8902
0.88627
0.88627
0.88627
0.90196
0.8902
0.88627
0.88627
0.88627
0.87059
0.87059
0.86667
0.85098
0.82549
0.82157
0.79608
0.76078
0.75098
0.76667
0.76667
0.7902
0.83137
0.86078
0.89608
0.92157
0.91569
0.93137
0.93137
0.92549
0.93137
0.93137
0.88627
0.6902
0.29412
-0.10588
0.14314
0.8451
1.1725
1.0863
1.002
0.97059
0.95686
0.96667
0.95686
0.95686
0.96078
0.95098
0.93137
0.93725
0.94118
0.93137
0.93137
0.92549
0.92157
0.91569
0.90588
0.90196
0.90588
0.90588
0.8902
0.88627
0.8902
0.88627
0.87059
0.86667
0.85686
0.83529
0.83137
0.81176
0.81569
0.82157
0.83137
0.84118
0.85686
0.87059
0.87647
0.88039
0.87059
0.88627
0.8902
0.90196
0.8902
0.88627
0.88627
0.8902
0.88627
0.87647
0.87059
0.88627
0.88039
0.88627
0.88627
0.88627
0.88627
0.88627
0.88039
0.87647
0.88627
0.88627
0.8902
0.88627
0.88627
0.88627
0.88039
0.88627
0.8902
0.89608
0.88627
0.87647
0.88627
0.8902
0.89608
0.8902
0.88627
0.88627
0.87647
0.8902
0.88627
0.89608
0.89608
0.90196
0.89608
0.8902
0.88627
0.88039
0.86078
0.83529
0.82549
0.83137
0.77647
0.7549
0.76078
0.76667
0.81176
0.8451
0.86078
0.88627
0.92157
0.93725
0.93137
0.93725
0.94118
0.94706
0.95686
0.91569
0.73529
0.3549
-0.066667
-0.10588
0.78627
1.1471
1.0725
0.98627
0.96078
0.95686
0.96078
0.95686
0.96667
0.96078
0.95686
0.95686
0.94706
0.93137
0.93137
0.93137
0.91569
0.91569
0.91176
0.90196
0.90588
0.89608
0.88627
0.88627
0.87059
0.86667
0.86667
0.86078
0.85686
0.84118
0.82549
0.81176
0.81176
0.81569
0.81176
0.82157
0.83529
0.86078
0.86667
0.87647
0.88039
0.8902
0.88627
0.8902
0.87647
0.88039
0.88627
0.8902
0.8902
0.88627
0.87647
0.87059
0.88627
0.87647
0.87647
0.88627
0.88627
0.88039
0.87647
0.87059
0.88039
0.88627
0.8902
0.89608
0.88627
0.87647
0.88627
0.88627
0.88627
0.89608
0.90196
0.88039
0.88627
0.88627
0.8902
0.88627
0.87059
0.88039
0.88039
0.88039
0.88039
0.88039
0.87647
0.88039
0.87647
0.88039
0.88039
0.87059
0.86078
0.84118
0.82549
0.81569
0.79608
0.76078
0.74118
0.75098
0.74118
0.77647
0.8
0.83137
0.86078
0.8902
0.90588
0.91569
0.91176
0.90588
0.92549
0.92157
0.88039
0.73529
0.39412
-0.076471
-0.15686
0.67647
1.1118
1.1176
0.97059
0.95098
0.96078
0.95686
0.95686
0.95686
0.95686
0.93725
0.93725
0.94118
0.93137
0.91569
0.91176
0.91176
0.91176
0.92157
0.91176
0.91569
0.90588
0.90588
0.8902
0.88627
0.8902
0.87059
0.86667
0.85098
0.83529
0.83137
0.82157
0.82157
0.81569
0.82157
0.83529
0.85098
0.86667
0.88627
0.88627
0.88039
0.88627
0.89608
0.8902
0.88627
0.88039
0.90196
0.90588
0.88627
0.88627
0.88039
0.88627
0.8902
0.88627
0.88627
0.88627
0.88627
0.89608
0.90196
0.88627
0.88039
0.8902
0.90196
0.90196
0.90196
0.90588
0.89608
0.88627
0.88627
0.90196
0.90588
0.89608
0.90196
0.88627
0.87647
0.90588
0.90196
0.90196
0.90588
0.89608
0.88627
0.88627
0.8902
0.88627
0.88627
0.89608
0.8902
0.87647
0.85686
0.82549
0.81569
0.84118
0.77059
0.7451
0.76667
0.78039
0.8
0.81569
0.83137
0.87059
0.92157
0.92549
0.91176
0.91569
0.92549
0.93137
0.93137
0.89608
0.73529
0.34902
-0.082353
-0.12157
0.7451
1.1471
1.1569
0.98627
0.94118
0.93137
0.95686
0.94706
0.94118
0.94706
0.93137
0.93137
0.93725
0.92549
0.90588
0.91176
0.91176
0.89608
0.90196
0.90588
0.8902
0.88627
0.88627
0.88039
0.88627
0.87059
0.86078
0.86078
0.85686
0.84118
0.83529
0.82157
0.81176
0.81569
0.82549
0.82157
0.83137
0.86667
0.88627
0.87647
0.8902
0.90588
0.90196
0.90588
0.90196
0.90196
0.90196
0.90196
0.90588
0.8902
0.8902
0.89608
0.89608
0.90196
0.88627
0.90196
0.90588
0.89608
0.90588
0.90588
0.90588
0.89608
0.88627
0.90196
0.90196
0.90588
0.91176
0.89608
0.90196
0.90588
0.91176
0.91176
0.90588
0.90588
0.8902
0.88627
0.90588
0.90588
0.91176
0.90196
0.90588
0.90588
0.90196
0.90588
0.8902
0.90588
0.90196
0.86667
0.82549
0.83137
0.81176
0.77647
0.76667
0.77647
0.76667
0.80588
0.82157
0.85098
0.88039
0.91176
0.92157
0.92549
0.92549
0.92549
0.93137
0.92549
0.86078
0.64118
0.2098
-0.14118
0.21961
0.93137
1.1471
1.0373
0.97647
0.95686
0.96078
0.97059
0.97059
0.96667
0.96078
0.96078
0.96667
0.93725
0.93137
0.93137
0.93137
0.93137
0.92549
0.92157
0.92549
0.93137
0.91569
0.92157
0.90588
0.90196
0.88627
0.88627
0.87059
0.87647
0.86078
0.85098
0.82549
0.82549
0.83529
0.83529
0.85098
0.87647
0.88627
0.88627
0.88627
0.90588
0.91176
0.90588
0.92157
0.92157
0.90588
0.90196
0.90588
0.90588
0.90588
0.90196
0.90588
0.90588
0.90196
0.89608
0.88627
0.89608
0.90588
0.90196
0.90588
0.90588
0.88627
0.88039
0.89608
0.90588
0.91176
0.90588
0.90588
0.90588
0.88627
0.88039
0.90588
0.90588
0.90588
0.90588
0.90588
0.90196
0.88627
0.88627
0.90588
0.90588
0.90196
0.90588
0.88627
0.88627
0.88627
0.86667
0.83529
0.83529
0.82549
0.7902
0.76667
0.76078
0.7549
0.77059
0.82157
0.85686
0.87647
0.90196
0.91569
0.92157
0.92549
0.93137
0.93725
0.93137
0.91569
0.82549
0.53529
0.098039
-0.10588
0.44902
1.0412
1.1176
1.0059
0.97647
0.97059
0.96667
0.96667
0.95686
0.95686
0.95098
0.94706
0.94118
0.95098
0.93725
0.93137
0.93137
0.93725
0.92549
0.91569
0.91176
0.90588
0.90588
0.8902
0.8902
0.88627
0.86667
0.84118
0.85098
0.85686
0.83137
0.83137
0.82157
0.81176
0.81176
0.82549
0.83529
0.8451
0.86078
0.86667
0.86078
0.87647
0.87059
0.88039
0.88627
0.87647
0.88627
0.89608
0.90196
0.89608
0.88627
0.88627
0.88627
0.88039
0.87647
0.88627
0.8902
0.88627
0.88627
0.87647
0.88039
0.88627
0.8902
0.8902
0.88627
0.89608
0.8902
0.89608
0.88627
0.88627
0.88627
0.88039
0.88627
0.90196
0.89608
0.88627
0.88627
0.88627
0.88039
0.88039
0.8902
0.8902
0.88627
0.87647
0.88039
0.88039
0.8902
0.88039
0.85686
0.83137
0.81176
0.80588
0.76667
0.74118
0.74118
0.74118
0.7549
0.80588
0.82549
0.85686
0.8902
0.91176
0.92157
0.91569
0.91176
0.91569
0.91176
0.91569
0.82157
0.56471
0.098039
-0.13137
0.38431
1.0373
1.1314
1.0157
0.96667
0.95686
0.95686
0.95686
0.94706
0.93725
0.94118
0.94118
0.94118
0.94118
0.93137
0.93137
0.92549
0.92157
0.91176
0.89608
0.89608
0.89608
0.90196
0.88627
0.88039
0.87647
0.88039
0.87647
0.86078
0.84118
0.83529
0.82157
0.81176
0.81176
0.81176
0.82157
0.83529
0.85098
0.86078
0.88039
0.88627
0.88627
0.88627
0.88627
0.88627
0.88627
0.88627
0.87647
0.86078
0.88039
0.88627
0.87647
0.88627
0.87647
0.87059
0.86667
0.87059
0.88039
0.88627
0.88627
0.8902
0.88627
0.87647
0.87059
0.88627
0.8902
0.88627
0.89608
0.89608
0.90196
0.89608
0.88627
0.88627
0.88627
0.88627
0.8902
0.88039
0.86667
0.88627
0.90196
0.90588
0.8902
0.8902
0.88627
0.88039
0.88039
0.88039
0.87647
0.84118
0.83529
0.83529
0.84118
0.81176
0.77059
0.7549
0.76078
0.7549
0.7902
0.82157
0.8451
0.86078
0.86667
0.91176
0.93725
0.92549
0.92549
0.92549
0.93137
0.88627
0.70588
0.30392
-0.11765
0.1098
0.82549
1.1569
1.0608
0.98235
0.96667
0.97059
0.95686
0.95686
0.96078
0.94706
0.95098
0.94706
0.93725
0.93137
0.93137
0.90588
0.91176
0.93137
0.92157
0.91569
0.90588
0.89608
0.8902
0.88627
0.88039
0.87647
0.88039
0.87059
0.86078
0.8451
0.83137
0.83529
0.83137
0.82157
0.82549
0.83137
0.84118
0.85098
0.88039
0.88627
0.8902
0.88627
0.88627
0.89608
0.90588
0.90588
0.89608
0.89608
0.90196
0.88627
0.88627
0.88627
0.88039
0.88627
0.89608
0.90196
0.89608
0.8902
0.88627
0.90196
0.90196
0.88627
0.8902
0.90588
0.88627
0.8902
0.90588
0.90588
0.91569
0.90588
0.90196
0.90588
0.89608
0.8902
0.89608
0.8902
0.88627
0.89608
0.8902
0.8902
0.88627
0.8902
0.89608
0.90196
0.89608
0.8902
0.89608
0.88039
0.87059
0.86078
0.83529
0.83529
0.80588
0.76078
0.74118
0.76667
0.77059
0.80588
0.83137
0.86078
0.88627
0.91569
0.92549
0.93137
0.92157
0.93725
0.93137
0.92549
0.87647
0.70588
0.30392
-0.11176
0.10392
0.83529
1.1373
1.051
0.97059
0.96078
0.96667
0.96667
0.96078
0.95686
0.95686
0.95686
0.94706
0.93725
0.94118
0.93137
0.93725
0.93137
0.93137
0.92549
0.92157
0.92157
0.90588
0.90196
0.90588
0.90196
0.8902
0.87647
0.86078
0.85098
0.8451
0.85098
0.83529
0.83137
0.82549
0.83529
0.84118
0.85686
0.86078
0.87059
0.88627
0.89608
0.89608
0.8902
0.88627
0.8902
0.89608
0.8902
0.89608
0.88627
0.8902
0.90196
0.89608
0.90196
0.90588
0.89608
0.89608
0.88627
0.88627
0.8902
0.90588
0.91176
0.91176
0.90196
0.89608
0.90588
0.90588
0.90196
0.90196
0.90196
0.88627
0.90196
0.90588
0.8902
0.88627
0.89608
0.90196
0.8902
0.88627
0.90196
0.89608
0.88627
0.88627
0.88039
0.88627
0.89608
0.90196
0.88039
0.85686
0.83137
0.82549
0.80588
0.77059
0.75098
0.7451
0.76667
0.8
0.83137
0.83529
0.86078
0.90196
0.92157
0.92549
0.92157
0.93137
0.93137
0.92157
0.89608
0.75098
0.41569
-0.05098
-0.12157
0.69608
1.1314
1.0824
0.97647
0.94118
0.95686
0.97059
0.96667
0.95686
0.94706
0.94118
0.94118
0.93725
0.93137
0.92549
0.92549
0.91569
0.90588
0.91176
0.90588
0.90588
0.89608
0.8902
0.89608
0.87647
0.87059
0.86078
0.86078
0.8451
0.83529
0.82549
0.82157
0.82157
0.82549
0.82157
0.83137
0.83529
0.85686
0.86078
0.87647
0.88039
0.88627
0.8902
0.89608
0.8902
0.88627
0.88627
0.8902
0.8902
0.88627
0.88039
0.87059
0.87647
0.88627
0.8902
0.88039
0.88627
0.87647
0.86667
0.88039
0.8902
0.88627
0.88039
0.8902
0.90588
0.90588
0.90196
0.89608
0.89608
0.89608
0.8902
0.88039
0.88627
0.88627
0.88627
0.8902
0.88627
0.88627
0.88039
0.88627
0.8902
0.89608
0.88627
0.8902
0.88627
0.88627
0.88039
0.86078
0.83137
0.82157
0.83137
0.78627
0.7549
0.76078
0.76078
0.7549
0.79608
0.83137
0.87059
0.90588
0.90588
0.91176
0.92157
0.91569
0.92157
0.93137
0.90196
0.7902
0.50588
0.058824
-0.10196
0.48431
1.0725
1.1471
1.0157
0.96078
0.95686
0.96667
0.96667
0.95686
0.94706
0.95098
0.94706
0.93725
0.93137
0.92549
0.92549
0.92157
0.90588
0.92157
0.91569
0.91176
0.90588
0.91176
0.90196
0.88627
0.88627
0.88039
0.86078
0.85686
0.84118
0.83137
0.82549
0.81569
0.81176
0.82157
0.82549
0.8451
0.85686
0.86078
0.88039
0.88627
0.88627
0.8902
0.88627
0.88039
0.87647
0.88039
0.88627
0.88627
0.88627
0.8902
0.88627
0.88627
0.88627
0.87647
0.88039
0.88627
0.8902
0.88627
0.88627
0.87647
0.88039
0.87647
0.88627
0.87647
0.8902
0.8902
0.88627
0.89608
0.8902
0.8902
0.89608
0.88627
0.88627
0.88627
0.8902
0.88627
0.88627
0.88627
0.88039
0.88039
0.88039
0.88627
0.88627
0.88627
0.8902
0.8902
0.88039
0.85686
0.82549
0.83529
0.81176
0.76667
0.75098
0.76078
0.7549
0.77647
0.81569
0.85098
0.88039
0.90588
0.90588
0.92549
0.93137
0.93137
0.93137
0.93137
0.90196
0.7451
0.4
-0.060784
-0.12745
0.69608
1.1176
1.1216
0.98627
0.95686
0.96078
0.95686
0.95686
0.96078
0.95098
0.94706
0.94118
0.93725
0.93137
0.93137
0.93137
0.93137
0.92157
0.91569
0.91569
0.90588
0.90196
0.91176
0.8902
0.88627
0.88039
0.87647
0.86078
0.85098
0.84118
0.83137
0.81569
0.81176
0.8
0.81569
0.83137
0.84118
0.85686
0.88039
0.88627
0.88039
0.8902
0.88627
0.8902
0.90196
0.90588
0.89608
0.8902
0.89608
0.89608
0.8902
0.8902
0.89608
0.8902
0.88627
0.88627
0.8902
0.88627
0.8902
0.90588
0.90196
0.8902
0.89608
0.90196
0.89608
0.90196
0.88627
0.88627
0.90588
0.90196
0.8902
0.8902
0.88039
0.87647
0.8902
0.90196
0.90588
0.88627
0.88039
0.88627
0.89608
0.8902
0.88039
0.87647
0.8902
0.88627
0.88627
0.86667
0.83137
0.81176
0.82157
0.8
0.76667
0.7451
0.75098
0.76078
0.7902
0.82549
0.84118
0.88039
0.90196
0.91176
0.90588
0.91176
0.91569
0.91569
0.92549
0.87059
0.69608
0.28431
-0.11176
0.12353
0.8451
1.1412
1.051
0.97059
0.95686
0.95098
0.94706
0.94118
0.93725
0.93137
0.93137
0.92549
0.92549
0.92157
0.91569
0.91176
0.91569
0.90588
0.90588
0.90196
0.89608
0.88627
0.87059
0.87647
0.87059
0.86078
0.86078
0.85098
0.84118
0.8451
0.83529
0.83137
0.81569
0.81569
0.81176
0.81569
0.84118
0.86078
0.86667
0.86667
0.88039
0.8902
0.8902
0.89608
0.87647
0.88627
0.88627
0.8902
0.8902
0.88627
0.88627
0.88039
0.87059
0.88627
0.89608
0.88627
0.88627
0.88627
0.8902
0.88627
0.88627
0.89608
0.90588
0.90196
0.90588
0.8902
0.90196
0.90588
0.90196
0.90588
0.89608
0.89608
0.8902
0.89608
0.90588
0.90196
0.89608
0.90196
0.88627
0.88627
0.88627
0.8902
0.88627
0.8902
0.88627
0.87647
0.85098
0.83137
0.83529
0.81569
0.76667
0.7549
0.76667
0.76667
0.7902
0.82549
0.83529
0.86667
0.90588
0.92549
0.93137
0.91569
0.91176
0.92549
0.93725
0.88627
0.68627
0.29412
-0.10196
0.14902
0.83137
1.1471
1.0608
0.98235
0.96078
0.95098
0.95686
0.94118
0.94118
0.95098
0.95098
0.94118
0.93137
0.92549
0.92549
0.92157
0.92157
0.90588
0.90196
0.90588
0.90196
0.90196
0.88627
0.88039
0.8902
0.89608
0.88627
0.88039
0.86078
0.8451
0.82549
0.81176
0.82157
0.83137
0.83529
0.84118
0.8451
0.85686
0.87059
0.89608
0.88627
0.88627
0.88627
0.88627
0.8902
0.88627
0.8902
0.89608
0.88627
0.88627
0.88627
0.88627
0.88627
0.88627
0.88039
0.88627
0.88039
0.88627
0.8902
0.8902
0.89608
0.88627
0.8902
0.89608
0.88627
0.88627
0.88627
0.88039
0.8902
0.89608
0.90196
0.8902
0.88627
0.87647
0.87647
0.88627
0.88627
0.88627
0.88039
0.88627
0.88627
0.88627
0.8902
0.88627
0.88039
0.87059
0.85686
0.83529
0.82157
0.82549
0.78039
0.75098
0.7549
0.7451
0.77059
0.81176
0.83137
0.85098
0.88039
0.90196
0.91569
0.90588
0.91176
0.91176
0.93725
0.91176
0.77647
0.4451
-0.0019608
-0.14118
0.53922
1.0863
1.1275
0.97647
0.95686
0.95098
0.95098
0.95686
0.95098
0.95098
0.93725
0.93137
0.93137
0.92157
0.91569
0.91569
0.92157
0.93137
0.91569
0.90588
0.90588
0.90588
0.90588
0.90196
0.88627
0.87647
0.86078
0.85686
0.85098
0.84118
0.83137
0.82157
0.81569
0.82157
0.82157
0.83137
0.8451
0.85686
0.87059
0.88039
0.88627
0.88039
0.88627
0.88039
0.8902
0.88627
0.89608
0.88627
0.8902
0.88627
0.88039
0.88039
0.88039
0.88039
0.8902
0.88627
0.88627
0.88039
0.8902
0.89608
0.90196
0.89608
0.90196
0.90196
0.88039
0.87059
0.8902
0.89608
0.8902
0.90196
0.88627
0.8902
0.89608
0.90196
0.89608
0.8902
0.89608
0.88627
0.88039
0.89608
0.90196
0.8902
0.89608
0.8902
0.8902
0.88627
0.88627
0.87059
0.85098
0.82549
0.82549
0.79608
0.76667
0.7451
0.75098
0.76078
0.81569
0.83137
0.85098
0.89608
0.92157
0.92549
0.93137
0.92549
0.93137
0.93137
0.92157
0.85686
0.64118
0.20392
-0.14118
0.2451
0.96078
1.1314
1.0275
0.97647
0.95098
0.96667
0.97059
0.95686
0.95686
0.94706
0.94118
0.94118
0.93137
0.94118
0.93137
0.93137
0.92157
0.93137
0.90196
0.90196
0.90196
0.90588
0.89608
0.88627
0.87059
0.86078
0.87059
0.85686
0.8451
0.83529
0.82157
0.81176
0.80588
0.81569
0.82549
0.82157
0.85098
0.86078
0.88039
0.8902
0.88627
0.8902
0.88627
0.88627
0.89608
0.88627
0.8902
0.8902
0.90588
0.90196
0.88627
0.88039
0.89608
0.90196
0.90196
0.89608
0.90196
0.8902
0.88627
0.8902
0.88627
0.88627
0.88627
0.88627
0.88627
0.89608
0.90196
0.90588
0.90196
0.90588
0.90196
0.8902
0.88039
0.88039
0.88627
0.88627
0.87647
0.88039
0.88627
0.88039
0.88627
0.88627
0.8902
0.88627
0.88627
0.88039
0.85686
0.8451
0.83137
0.81569
0.81176
0.77059
0.75098
0.74118
0.7549
0.76667
0.81176
0.83529
0.86078
0.90196
0.90588
0.90588
0.91176
0.91569
0.90588
0.92157
0.90196
0.8
0.48431
0.013725
-0.13725
0.51961
1.0725
1.1412
0.99608
0.95686
0.95098
0.94706
0.94118
0.95098
0.94118
0.94118
0.94706
0.93137
0.93137
0.92157
0.90588
0.91176
0.90588
0.90588
0.90196
0.8902
0.8902
0.90588
0.8902
0.88627
0.8902
0.86667
0.86078
0.85098
0.8451
0.83529
0.82549
0.81176
0.81176
0.81569
0.83137
0.83529
0.85686
0.88039
0.88039
0.88039
0.88627
0.88627
0.88627
0.88627
0.90196
0.88627
0.88627
0.88627
0.88627
0.87647
0.87059
0.88627
0.8902
0.88627
0.88627
0.88039
0.88039
0.88627
0.8902
0.88627
0.8902
0.90196
0.88627
0.8902
0.8902
0.8902
0.90588
0.8902
0.8902
0.90588
0.89608
0.88039
0.88627
0.88627
0.88627
0.89608
0.90196
0.88627
0.88627
0.8902
0.88627
0.8902
0.89608
0.86667
0.88627
0.88627
0.87059
0.84118
0.82549
0.83529
0.78039
0.76078
0.7451
0.76078
0.78627
0.80588
0.82549
0.85686
0.8902
0.91569
0.90588
0.90196
0.89608
0.91569
0.93137
0.89608
0.76667
0.41961
-0.037255
-0.12745
0.62549
1.1059
1.1412
0.99216
0.94706
0.93725
0.94118
0.93137
0.93725
0.94706
0.94118
0.93725
0.94118
0.93137
0.92157
0.92157
0.90588
0.89608
0.90196
0.90588
0.90196
0.88627
0.88627
0.87647
0.87647
0.87059
0.87647
0.86078
0.86078
0.84118
0.83137
0.81569
0.81569
0.81176
0.83137
0.83529
0.8451
0.85686
0.86078
0.87647
0.86667
0.88039
0.8902
0.89608
0.8902
0.88627
0.8902
0.89608
0.88627
0.88627
0.88039
0.87647
0.88039
0.88627
0.88039
0.87647
0.87647
0.87059
0.87059
0.88627
0.8902
0.88627
0.88627
0.88627
0.87647
0.87059
0.88039
0.88627
0.88627
0.8902
0.88627
0.87647
0.88039
0.88627
0.88627
0.88039
0.88039
0.88039
0.87647
0.88039
0.88627
0.87647
0.88039
0.89608
0.89608
0.88039
0.85686
0.83137
0.82549
0.83137
0.76667
0.7451
0.76078
0.76667
0.78627
0.81569
0.83137
0.86667
0.8902
0.90588
0.91569
0.93137
0.92549
0.92157
0.93137
0.89608
0.75098
0.4
-0.041176
-0.14118
0.6549
1.1176
1.1216
0.99216
0.95686
0.95686
0.95686
0.95098
0.95098
0.94706
0.94706
0.93725
0.94706
0.93137
0.93137
0.92157
0.91569
0.91176
0.90588
0.90196
0.89608
0.8902
0.89608
0.88627
0.87647
0.87059
0.87059
0.86078
0.84118
0.83529
0.83529
0.82549
0.82157
0.81569
0.81176
0.83137
0.8451
0.87059
0.88039
0.88627
0.88627
0.8902
0.90196
0.89608
0.90196
0.8902
0.89608
0.8902
0.88627
0.90588
0.8902
0.8902
0.90196
0.90196
0.8902
0.88627
0.8902
0.89608
0.88627
0.90196
0.90588
0.90196
0.90196
0.90588
0.90588
0.90588
0.90588
0.90588
0.89608
0.89608
0.90196
0.90588
0.90196
0.90588
0.90588
0.90196
0.90588
0.88627
0.90196
0.90588
0.90588
0.89608
0.90196
0.90196
0.88627
0.8902
0.89608
0.87647
0.86078
0.83529
0.83137
0.81569
0.76667
0.7549
0.76078
0.76667
0.8
0.82549
0.83529
0.86667
0.90588
0.92549
0.93137
0.93137
0.94118
0.94706
0.92549
0.87647
0.69608
0.31373
-0.10196
-0.11176
0.79608
1.1314
1.0569
0.97647
0.95686
0.96078
0.96667
0.96078
0.96667
0.95686
0.94118
0.94118
0.94118
0.93137
0.93137
0.93137
0.92549
0.92157
0.90588
0.90588
0.90588
0.90588
0.88627
0.88627
0.87647
0.86667
0.86667
0.86078
0.83529
0.83529
0.82549
0.81569
0.82157
0.81176
0.81176
0.83529
0.84118
0.86667
0.88039
0.88627
0.88627
0.8902
0.90196
0.88627
0.88627
0.8902
0.90588
0.89608
0.90588
0.89608
0.88627
0.8902
0.88627
0.88627
0.89608
0.88627
0.88627
0.88627
0.89608
0.90196
0.88039
0.8902
0.90588
0.90588
0.90196
0.89608
0.8902
0.90588
0.90588
0.90588
0.90196
0.89608
0.88627
0.89608
0.8902
0.89608
0.88627
0.89608
0.90196
0.88627
0.88627
0.8902
0.89608
0.8902
0.88627
0.88039
0.87647
0.86078
0.84118
0.82549
0.82157
0.78627
0.75098
0.76078
0.7549
0.77059
0.82157
0.83529
0.85686
0.88627
0.91176
0.91569
0.92157
0.92549
0.91569
0.92157
0.90588
0.81569
0.53529
0.094118
-0.082353
0.43529
1.0412
1.1412
1.0157
0.96667
0.94706
0.93725
0.94118
0.94706
0.95098
0.95686
0.94706
0.93725
0.93137
0.93137
0.93137
0.92549
0.90588
0.90588
0.89608
0.90196
0.88627
0.88627
0.88627
0.87647
0.86667
0.87059
0.86667
0.85686
0.83529
0.83137
0.81176
0.81176
0.8
0.82549
0.83529
0.8451
0.85686
0.86667
0.89608
0.90588
0.91569
0.90588
0.89608
0.89608
0.90588
0.90588
0.90196
0.90196
0.90196
0.89608
0.90196
0.90588
0.90196
0.89608
0.90588
0.90196
0.90588
0.90196
0.89608
0.90588
0.90588
0.89608
0.90588
0.91176
0.90588
0.90196
0.8902
0.89608
0.90196
0.90588
0.90196
0.90588
0.90588
0.91176
0.90196
0.89608
0.89608
0.90588
0.8902
0.8902
0.88627
0.90196
0.90588
0.90196
0.90588
0.88039
0.85686
0.83529
0.85098
0.81176
0.77059
0.78039
0.77059
0.76667
0.81176
0.8451
0.87647
0.90588
0.91569
0.91176
0.93137
0.93725
0.94118
0.95098
0.92549
0.81569
0.55098
0.098039
-0.10588
0.4098
1.0314
1.1412
1.0373
0.98235
0.97059
0.97647
0.97647
0.97059
0.96078
0.96078
0.97059
0.95686
0.95098
0.95686
0.95098
0.94706
0.93725
0.93137
0.93137
0.92549
0.92157
0.91569
0.91569
0.90588
0.88627
0.87059
0.88627
0.88627
0.87059
0.85098
0.83529
0.83529
0.83137
0.83529
0.84118
0.85098
0.87059
0.88627
0.88627
0.8902
0.90588
0.90588
0.90588
0.91176
0.90588
0.89608
0.8902
0.90588
0.90588
0.90196
0.89608
0.90588
0.89608
0.90196
0.88627
0.88627
0.8902
0.89608
0.90588
0.89608
0.8902
0.89608
0.90196
0.90196
0.90196
0.91176
0.91569
0.90196
0.89608
0.90196
0.90588
0.90588
0.90588
0.90588
0.89608
0.90588
0.90588
0.90196
0.89608
0.91176
0.91569
0.90196
0.89608
0.89608
0.90196
0.89608
0.87059
0.83529
0.82549
0.84118
0.81569
0.78627
0.76667
0.76667
0.77059
0.81176
0.83529
0.86078
0.8902
0.90588
0.92549
0.92549
0.93137
0.93725
0.94118
0.92549
0.86078
0.6549
0.23922
-0.12157
0.20392
0.92549
1.1275
1.0471
0.98627
0.96667
0.96078
0.96667
0.96667
0.97059
0.95686
0.94706
0.94118
0.94706
0.95686
0.95686
0.94118
0.93137
0.92157
0.93137
0.91569
0.90196
0.90588
0.90588
0.8902
0.87647
0.86667
0.86667
0.87059
0.85686
0.84118
0.83529
0.82549
0.81569
0.81569
0.82157
0.83529
0.85098
0.87647
0.88627
0.8902
0.88627
0.8902
0.90196
0.89608
0.89608
0.90196
0.90588
0.90588
0.89608
0.8902
0.90196
0.90588
0.89608
0.88627
0.8902
0.88039
0.88039
0.88627
0.90196
0.89608
0.90196
0.8902
0.88627
0.90196
0.90588
0.90196
0.89608
0.89608
0.90196
0.8902
0.8902
0.89608
0.89608
0.90196
0.89608
0.90196
0.8902
0.89608
0.90196
0.90588
0.89608
0.88627
0.8902
0.88627
0.8902
0.88039
0.86078
0.85686
0.83137
0.83137
0.83529
0.78627
0.75098
0.76078
0.76667
0.77647
0.81176
0.83137
0.86667
0.90196
0.91176
0.92549
0.91569
0.91569
0.92157
0.93137
0.90196
0.8
0.52549
0.058824
-0.10588
0.4902
1.0667
1.1314
1.002
0.95098
0.93725
0.95686
0.96078
0.95098
0.93137
0.93137
0.94706
0.93725
0.92157
0.91569
0.90588
0.90588
0.91569
0.90588
0.91176
0.89608
0.8902
0.88627
0.88039
0.87059
0.85098
0.86078
0.86078
0.85098
0.82549
0.81176
0.7902
0.7902
0.8
0.82157
0.82549
0.83137
0.8451
0.86078
0.86667
0.87059
0.88039
0.88627
0.88627
0.88039
0.88039
0.8902
0.90196
0.88627
0.88627
0.88627
0.88627
0.88627
0.88627
0.87647
0.87647
0.88039
0.88627
0.88039
0.87059
0.87059
0.88627
0.90196
0.89608
0.8902
0.89608
0.90196
0.8902
0.88627
0.88627
0.88627
0.88627
0.8902
0.88627
0.88627
0.87647
0.87647
0.88627
0.88627
0.89608
0.88627
0.88039
0.88627
0.8902
0.87647
0.86667
0.86667
0.86078
0.83137
0.81569
0.81176
0.76667
0.73529
0.74118
0.7549
0.77647
0.81176
0.83137
0.8451
0.88627
0.90588
0.90588
0.90588
0.91176
0.90588
0.92157
0.89608
0.76667
0.48431
0.029412
-0.10588
0.52941
1.0765
1.1373
0.99216
0.95686
0.95686
0.95686
0.96078
0.94118
0.93725
0.92549
0.93137
0.93137
0.92157
0.91569
0.90588
0.90196
0.90588
0.90588
0.90588
0.88627
0.88039
0.8902
0.88627
0.87059
0.86078
0.85098
0.83529
0.84118
0.83137
0.81569
0.80588
0.81176
0.81176
0.81176
0.82549
0.83529
0.86078
0.86078
0.86078
0.88627
0.88627
0.8902
0.88039
0.88627
0.87647
0.88627
0.89608
0.8902
0.88627
0.88627
0.88627
0.88627
0.88039
0.88039
0.87647
0.87647
0.88039
0.87647
0.88039
0.87647
0.87647
0.87059
0.88627
0.89608
0.8902
0.88627
0.88627
0.88039
0.87647
0.88627
0.88627
0.88627
0.88627
0.88039
0.88627
0.88039
0.88627
0.88039
0.88039
0.88627
0.88627
0.88039
0.87059
0.87647
0.87059
0.88627
0.88039
0.85686
0.83137
0.81176
0.81176
0.78039
0.74118
0.74118
0.7451
0.76078
0.7902
0.82549
0.8451
0.87647
0.91176
0.92157
0.91176
0.90588
0.90588
0.90588
0.91569
0.83529
0.59608
0.14314
-0.16275
0.26863
0.96667
1.1216
1.0118
0.95686
0.95686
0.95686
0.95686
0.94118
0.94706
0.94706
0.93725
0.93725
0.93137
0.92549
0.93725
0.93137
0.92549
0.91176
0.90588
0.90588
0.89608
0.90196
0.88627
0.88039
0.86078
0.86078
0.86667
0.85686
0.84118
0.83137
0.82157
0.80588
0.8
0.81176
0.82157
0.83529
0.85098
0.86078
0.87059
0.88039
0.87647
0.88627
0.8902
0.8902
0.88627
0.8902
0.89608
0.89608
0.88627
0.89608
0.90196
0.8902
0.89608
0.88627
0.88039
0.88627
0.88627
0.88039
0.87647
0.88627
0.8902
0.88627
0.88627
0.89608
0.89608
0.8902
0.88627
0.8902
0.8902
0.8902
0.8902
0.89608
0.88627
0.88627
0.8902
0.89608
0.87647
0.87647
0.8902
0.89608
0.88627
0.87647
0.87647
0.88039
0.88627
0.88627
0.88627
0.88627
0.87647
0.85098
0.81569
0.81176
0.82549
0.77647
0.75098
0.74118
0.7549
0.7451
0.7902
0.82157
0.8451
0.88039
0.89608
0.90588
0.91176
0.91176
0.90196
0.90588
0.91176
0.79608
0.50588
0.04902
-0.11765
0.47059
1.0569
1.1059
0.99216
0.94118
0.92157
0.94118
0.95686
0.96078
0.94706
0.93725
0.94706
0.92549
0.92157
0.92549
0.91569
0.91176
0.91569
0.8902
0.88627
0.88627
0.88627
0.88627
0.87647
0.86078
0.85686
0.86078
0.8451
0.83529
0.83137
0.81176
0.79608
0.7902
0.8
0.80588
0.80588
0.81176
0.83137
0.85098
0.86078
0.86078
0.86078
0.87059
0.88039
0.88627
0.88627
0.88627
0.88039
0.87059
0.86078
0.86078
0.87647
0.88039
0.86078
0.86078
0.87059
0.88039
0.87647
0.88627
0.88039
0.87059
0.88039
0.89608
0.8902
0.88627
0.87647
0.87647
0.87647
0.88627
0.89608
0.90196
0.87647
0.86078
0.88627
0.90588
0.8902
0.88627
0.87059
0.86667
0.87059
0.88627
0.8902
0.88627
0.88039
0.88039
0.88627
0.86078
0.87647
0.88627
0.86667
0.84118
0.81176
0.80588
0.81569
0.76078
0.7451
0.7549
0.7549
0.77647
0.81176
0.82549
0.87059
0.90196
0.91176
0.91569
0.92157
0.90588
0.90588
0.91176
0.87647
0.7098
0.35882
-0.086275
-0.11765
0.7451
1.1314
1.1373
0.97647
0.93137
0.94118
0.94706
0.93725
0.94706
0.95098
0.93725
0.93725
0.93137
0.91176
0.90588
0.90196
0.89608
0.90588
0.88627
0.88039
0.8902
0.8902
0.88627
0.89608
0.87059
0.86078
0.85686
0.85098
0.83529
0.82549
0.81569
0.81569
0.80588
0.81176
0.82549
0.83137
0.82549
0.86078
0.86667
0.87647
0.88627
0.89608
0.8902
0.89608
0.8902
0.90196
0.8902
0.88627
0.88627
0.8902
0.88627
0.88039
0.90196
0.90196
0.8902
0.87647
0.88039
0.88627
0.8902
0.8902
0.90196
0.88627
0.89608
0.89608
0.90196
0.88627
0.8902
0.88627
0.90196
0.8902
0.90196
0.89608
0.8902
0.90588
0.90196
0.8902
0.88039
0.89608
0.90196
0.8902
0.88039
0.88039
0.88627
0.88627
0.88039
0.8902
0.89608
0.88039
0.85686
0.83137
0.83529
0.80588
0.76078
0.7549
0.76667
0.78039
0.80588
0.82157
0.83529
0.88039
0.91569
0.91569
0.92549
0.93137
0.92157
0.94118
0.94706
0.82157
0.58431
0.14314
-0.11765
0.33922
1.0118
1.1314
1.0275
0.96667
0.96078
0.95098
0.95686
0.95686
0.95686
0.96667
0.95686
0.95098
0.93137
0.93725
0.93137
0.92549
0.92549
0.92549
0.91569
0.92157
0.90588
0.90196
0.8902
0.89608
0.8902
0.89608
0.88039
0.86667
0.8451
0.8451
0.83529
0.84118
0.82157
0.82549
0.83529
0.8451
0.86078
0.87647
0.88627
0.8902
0.90588
0.90196
0.90588
0.90196
0.90588
0.89608
0.90588
0.90588
0.90196
0.90196
0.89608
0.88627
0.8902
0.88627
0.90196
0.89608
0.8902
0.89608
0.8902
0.89608
0.90196
0.8902
0.90196
0.90588
0.90588
0.90588
0.91176
0.91176
0.90588
0.89608
0.8902
0.8902
0.89608
0.89608
0.89608
0.8902
0.88627
0.8902
0.89608
0.90196
0.88627
0.90196
0.90196
0.90588
0.89608
0.90196
0.89608
0.90196
0.87059
0.84118
0.83137
0.83137
0.79608
0.76078
0.7549
0.76078
0.77647
0.82549
0.84118
0.85686
0.89608
0.91569
0.92549
0.93137
0.93725
0.93725
0.94118
0.92157
0.83137
0.5549
0.12353
-0.11176
0.42549
1.0471
1.1373
1.0118
0.96667
0.95686
0.97059
0.96078
0.95686
0.95686
0.96078
0.95686
0.95686
0.95098
0.94118
0.93725
0.93137
0.93137
0.92549
0.92157
0.91569
0.91176
0.90196
0.90588
0.90196
0.88627
0.88039
0.87059
0.86078
0.85098
0.83529
0.82157
0.81569
0.81176
0.82157
0.82549
0.83529
0.85098
0.87059
0.88039
0.89608
0.8902
0.89608
0.89608
0.88627
0.88627
0.90196
0.8902
0.88627
0.8902
0.89608
0.8902
0.90196
0.90588
0.90196
0.89608
0.88627
0.89608
0.88627
0.89608
0.89608
0.90196
0.90588
0.90196
0.90196
0.90196
0.89608
0.89608
0.89608
0.90196
0.8902
0.8902
0.89608
0.89608
0.88627
0.8902
0.89608
0.8902
0.89608
0.89608
0.90196
0.90588
0.90588
0.89608
0.8902
0.88627
0.88039
0.88627
0.89608
0.88039
0.85098
0.83137
0.82157
0.82549
0.78627
0.74118
0.75098
0.76667
0.79608
0.82157
0.8451
0.87059
0.90588
0.91569
0.91176
0.90588
0.90588
0.92549
0.95098
0.91569
0.77059
0.42941
-0.011765
-0.12157
0.67647
1.1275
1.1314
0.99216
0.95098
0.94706
0.96078
0.95686
0.95686
0.95098
0.95686
0.93725
0.93137
0.93137
0.92549
0.90588
0.91569
0.92549
0.91569
0.89608
0.90196
0.90196
0.88627
0.88039
0.87059
0.86078
0.86078
0.86078
0.8451
0.83137
0.83529
0.82157
0.82157
0.81569
0.81569
0.82549
0.84118
0.86078
0.87647
0.88039
0.87059
0.88627
0.8902
0.89608
0.8902
0.88627
0.88627
0.90196
0.89608
0.8902
0.89608
0.89608
0.89608
0.8902
0.88627
0.8902
0.88627
0.88627
0.88627
0.88039
0.88627
0.8902
0.89608
0.88627
0.8902
0.8902
0.89608
0.89608
0.8902
0.88627
0.88627
0.8902
0.88627
0.88039
0.88627
0.88039
0.88627
0.88627
0.88627
0.88627
0.88627
0.87059
0.86078
0.86667
0.88039
0.88627
0.88627
0.88039
0.86078
0.83137
0.81569
0.82549
0.78627
0.7451
0.74118
0.76078
0.77059
0.81176
0.82549
0.8451
0.88039
0.89608
0.90588
0.90588
0.91176
0.90588
0.91176
0.90196
0.78627
0.50588
0.068627
-0.092157
0.4902
1.0608
1.1412
1.0059
0.95686
0.94706
0.95686
0.95098
0.95686
0.95686
0.95686
0.94118
0.93725
0.92549
0.91569
0.90588
0.90196
0.90588
0.91176
0.90196
0.88627
0.8902
0.89608
0.88039
0.8902
0.87647
0.86667
0.86667
0.85686
0.83529
0.83137
0.82157
0.82157
0.81569
0.82157
0.81176
0.81176
0.83529
0.86078
0.88039
0.8902
0.89608
0.88627
0.88039
0.88039
0.88627
0.89608
0.89608
0.88039
0.87059
0.88627
0.89608
0.8902
0.89608
0.88039
0.87647
0.89608
0.8902
0.89608
0.89608
0.90196
0.88627
0.89608
0.8902
0.90196
0.90588
0.90196
0.90588
0.8902
0.8902
0.89608
0.8902
0.8902
0.90196
0.90588
0.90588
0.90588
0.89608
0.89608
0.88627
0.8902
0.8902
0.88627
0.90196
0.8902
0.88627
0.88039
0.87059
0.85686
0.83529
0.83529
0.8
0.76667
0.76078
0.76667
0.78039
0.8
0.82549
0.83529
0.88039
0.90588
0.92157
0.92549
0.92549
0.92549
0.93137
0.91569
0.82549
0.57451
0.16471
-0.12157
0.33922
0.99216
1.1216
1.0157
0.96078
0.94118
0.95686
0.96667
0.95686
0.94706
0.94706
0.95686
0.94706
0.94118
0.93725
0.93137
0.91569
0.91569
0.90588
0.90588
0.91176
0.90588
0.90588
0.89608
0.88039
0.88627
0.8902
0.87059
0.86078
0.85686
0.84118
0.83137
0.81569
0.8
0.81176
0.82157
0.82549
0.85098
0.87059
0.87647
0.8902
0.8902
0.89608
0.89608
0.90588
0.89608
0.88627
0.88627
0.8902
0.89608
0.88039
0.88627
0.88627
0.90196
0.88627
0.8902
0.89608
0.88627
0.88627
0.89608
0.8902
0.89608
0.88627
0.8902
0.88627
0.88627
0.90588
0.91176
0.89608
0.90588
0.91176
0.90196
0.89608
0.89608
0.90196
0.8902
0.89608
0.8902
0.90588
0.89608
0.88627
0.89608
0.90588
0.88627
0.88627
0.8902
0.89608
0.88039
0.85686
0.82549
0.83529
0.79608
0.76078
0.75098
0.7549
0.76667
0.80588
0.83529
0.85686
0.89608
0.90588
0.91569
0.93137
0.92549
0.91176
0.92549
0.93137
0.85686
0.6098
0.2
-0.10588
0.32941
0.99608
1.1216
1.0157
0.96667
0.95686
0.96078
0.95686
0.95098
0.95098
0.95686
0.95686
0.94706
0.93725
0.94118
0.93725
0.93137
0.92549
0.92157
0.90588
0.90196
0.90588
0.89608
0.89608
0.90196
0.88627
0.87647
0.86667
0.86078
0.8451
0.83529
0.82157
0.81569
0.81176
0.81176
0.82549
0.84118
0.85686
0.87059
0.88039
0.88627
0.8902
0.90196
0.88627
0.90588
0.91176
0.8902
0.88627
0.90196
0.8902
0.89608
0.90588
0.90196
0.89608
0.90588
0.89608
0.90196
0.90588
0.88627
0.88627
0.89608
0.8902
0.90588
0.90196
0.89608
0.90196
0.91176
0.90588
0.90588
0.89608
0.90196
0.90196
0.91176
0.90196
0.89608
0.90588
0.90588
0.91176
0.90196
0.89608
0.88627
0.88627
0.88627
0.88627
0.88627
0.89608
0.87647
0.83529
0.82157
0.84118
0.80588
0.77059
0.76078
0.76667
0.76078
0.8
0.83529
0.84118
0.88627
0.91176
0.91569
0.93137
0.94118
0.94706
0.93137
0.92549
0.86078
0.6451
0.22353
-0.10196
0.29412
0.98235
1.151
1.0373
0.98235
0.97059
0.97059
0.96078
0.96078
0.96667
0.94706
0.93725
0.94118
0.93137
0.94118
0.93725
0.92549
0.91176
0.91176
0.92157
0.90588
0.89608
0.90588
0.90196
0.8902
0.88627
0.88627
0.87647
0.85686
0.84118
0.84118
0.83137
0.81569
0.81176
0.80588
0.82549
0.8451
0.85098
0.87647
0.88039
0.88627
0.88627
0.88627
0.90588
0.89608
0.88627
0.90196
0.90196
0.90588
0.8902
0.88627
0.88627
0.88627
0.88627
0.89608
0.88627
0.88627
0.8902
0.88627
0.88627
0.89608
0.89608
0.8902
0.8902
0.8902
0.89608
0.88627
0.8902
0.8902
0.90196
0.90588
0.90196
0.88627
0.8902
0.89608
0.90196
0.89608
0.90196
0.90588
0.90196
0.88627
0.88627
0.88627
0.88039
0.88627
0.88039
0.86078
0.85686
0.83529
0.83529
0.79608
0.76667
0.77059
0.77059
0.78627
0.81569
0.83529
0.86667
0.90588
0.91569
0.91176
0.92157
0.92549
0.92157
0.92549
0.90196
0.80588
0.49412
0.052941
-0.096078
0.53922
1.0824
1.1373
1.002
0.96667
0.95686
0.95686
0.94118
0.94118
0.95686
0.94706
0.93725
0.95098
0.94118
0.92549
0.91569
0.92157
0.91569
0.91176
0.90588
0.91176
0.8902
0.88627
0.88627
0.88627
0.88627
0.86667
0.86078
0.85686
0.8451
0.84118
0.82549
0.82157
0.80588
0.81176
0.83137
0.84118
0.83529
0.86667
0.88627
0.88627
0.87647
0.8902
0.89608
0.8902
0.88627
0.88627
0.89608
0.8902
0.89608
0.87647
0.87059
0.88627
0.8902
0.88627
0.89608
0.8902
0.89608
0.88627
0.88627
0.88039
0.89608
0.8902
0.89608
0.89608
0.88627
0.88039
0.88627
0.8902
0.88627
0.88627
0.88627
0.8902
0.89608
0.88039
0.88627
0.88627
0.88627
0.88627
0.88627
0.8902
0.88039
0.88039
0.87647
0.88039
0.88627
0.87647
0.86078
0.85686
0.82549
0.83137
0.79608
0.75098
0.74118
0.75098
0.76078
0.80588
0.82549
0.85098
0.87647
0.89608
0.90588
0.91569
0.92157
0.91176
0.91569
0.92549
0.85098
0.6098
0.18431
-0.12157
0.30392
0.96667
1.102
1.0118
0.95098
0.94118
0.95686
0.95686
0.95098
0.94118
0.93137
0.93137
0.94118
0.93137
0.92157
0.92549
0.92157
0.92549
0.92157
0.90588
0.89608
0.8902
0.88627
0.88627
0.88039
0.87647
0.86078
0.85686
0.86078
0.84118
0.81569
0.80588
0.79608
0.80588
0.80588
0.81176
0.82157
0.83529
0.85686
0.87059
0.88039
0.86667
0.86667
0.87059
0.87647
0.87059
0.86667
0.88627
0.8902
0.88039
0.88627
0.8902
0.87059
0.87647
0.89608
0.88627
0.88039
0.88627
0.88627
0.88627
0.87647
0.87647
0.88039
0.88627
0.8902
0.88039
0.88627
0.87059
0.88039
0.88627
0.8902
0.87647
0.88039
0.88627
0.88627
0.88627
0.88627
0.88627
0.88039
0.88627
0.88627
0.88627
0.88627
0.87059
0.86667
0.88039
0.88039
0.87647
0.85686
0.83529
0.81176
0.80588
0.77647
0.75098
0.74118
0.73529
0.75098
0.80588
0.82549
0.8451
0.8902
0.90588
0.91176
0.91176
0.90588
0.91176
0.92549
0.90588
0.82157
0.58039
0.16471
-0.12157
0.33922
0.99216
1.1275
1.0059
0.96078
0.94706
0.94118
0.93725
0.93137
0.93137
0.93137
0.92549
0.92157
0.92157
0.92157
0.92549
0.91569
0.90588
0.90196
0.90196
0.8902
0.88627
0.88039
0.87647
0.86078
0.86078
0.85686
0.85686
0.83529
0.82549
0.82549
0.83137
0.81176
0.8
0.80588
0.79608
0.81569
0.83529
0.86078
0.86667
0.87647
0.86667
0.87059
0.89608
0.90196
0.87647
0.88627
0.8902
0.88627
0.87647
0.87647
0.88039
0.88627
0.87059
0.87059
0.87647
0.88039
0.86667
0.88627
0.89608
0.8902
0.88627
0.8902
0.87647
0.87647
0.88627
0.87647
0.86667
0.88627
0.88627
0.88627
0.8902
0.88039
0.87647
0.88627
0.85686
0.8451
0.87059
0.88627
0.87647
0.88039
0.87059
0.86667
0.87059
0.87647
0.86667
0.86667
0.83529
0.82157
0.81569
0.82157
0.77647
0.7451
0.74118
0.7549
0.75098
0.7902
0.8
0.83529
0.87647
0.87647
0.88627
0.90196
0.90588
0.90196
0.90588
0.88627
0.77647
0.47059
0.0078431
-0.13725
0.52941
1.0765
1.1412
0.98627
0.94706
0.93725
0.93137
0.92549
0.93137
0.92157
0.90588
0.91176
0.91569
0.90588
0.90588
0.90196
0.89608
0.8902
0.90196
0.88039
0.88039
0.87647
0.87059
0.87059
0.87647
0.86667
0.86078
0.8451
0.83529
0.83529
0.82549
0.80588
0.8
0.7902
0.79608
0.82157
0.83137
0.85098
0.85098
0.86078
0.87059
0.88039
0.87647
0.88039
0.88039
0.88039
0.88039
0.88627
0.88039
0.87647
0.88039
0.88627
0.88627
0.8902
0.86667
0.87647
0.87059
0.86078
0.87059
0.88627
0.90588
0.8902
0.8902
0.89608
0.8902
0.8902
0.89608
0.90196
0.8902
0.88627
0.88627
0.8902
0.90196
0.89608
0.89608
0.88627
0.8902
0.90196
0.90196
0.90588
0.90196
0.90196
0.8902
0.88627
0.90196
0.88627
0.86078
0.83137
0.82549
0.85098
0.81569
0.77647
0.7451
0.7549
0.77647
0.80588
0.83137
0.86078
0.89608
0.91569
0.92157
0.92549
0.93137
0.93137
0.93137
0.90588
0.83137
0.57451
0.1549
-0.086275
0.38431
1.0216
1.1314
1.0157
0.97647
0.96078
0.95686
0.94706
0.93725
0.95098
0.96078
0.95098
0.95098
0.95686
0.94118
0.93137
0.92157
0.92157
0.92157
0.90588
0.90588
0.91176
0.90588
0.90588
0.8902
0.88627
0.88627
0.88627
0.88039
0.86667
0.8451
0.83529
0.82549
0.82549
0.82157
0.82549
0.83529
0.85686
0.87647
0.88627
0.90196
0.90588
0.90588
0.89608
0.88627
0.87647
0.87059
0.90196
0.91176
0.90588
0.8902
0.88627
0.8902
0.88627
0.90196
0.88039
0.87647
0.8902
0.89608
0.90588
0.90196
0.90588
0.91176
0.89608
0.82549
0.81569
0.92157
0.94118
0.92549
0.92157
0.91176
0.8902
0.88627
0.8902
0.87059
0.87647
0.89608
0.90196
0.89608
0.88627
0.91176
0.90196
0.88627
0.88627
0.87647
0.86667
0.8451
0.81569
0.76667
0.68627
0.67059
0.8
0.81569
0.75098
0.83137
0.79608
0.78039
0.83529
0.70588
0.77647
0.72549
0.82157
1.0412
0.98627
0.95686
0.99608
0.7098
0.013725
-0.45294
0.039216
0.78039
1.2373
1.3569
1.0373
0.98235
1.0216
0.64118
0.43922
0.6
0.72549
1.2275
1.4333
1.1373
1.0765
1.0157
0.73137
0.43922
-0.072549
0.96078
1.1961
0.87059
1.2529
1.2765
1.0863
0.90588
0.5451
0.52549
1.0275
0.44902
0.42941
1.2882
1.0725
0.64118
1.0412
1.0961
0.94706
0.4098
0.95098
1.2431
1.102
1.0157
0.99216
0.98235
0.98235
0.97059
0.96078
0.75098
0.64118
0.94706
0.76078
1.0059
1.0667
1.1314
1.0667
1.0275
0.98627
0.97647
0.97647
0.97647
0.97647
0.97059
0.96078
0.96078
0.94706
0.94118
0.96667
0.66078
0.52941
0.87647
1.2118
1.1471
1.0569
1.0059
0.97059
0.94706
0.94706
0.95098
0.95686
0.95098
0.93137
0.90196
0.87647
0.88039
0.84118
0.80588
0.79608
0.76078
0.75098
0.85098
0.57451
0.92549
1.0824
1.0275
0.98627
0.97647
0.96078
0.96078
0.96667
0.95098
0.84118
0.53922
0.07451
-0.060784
0.6098
1.1275
1.1863
1.0275
0.97647
0.97059
0.97647
0.97647
0.96667
0.95686
0.95686
0.94706
0.93725
0.93137
0.93137
0.91569
0.90588
0.90588
0.90588
0.90196
0.8902
0.88039
0.88627
0.87647
0.87059
0.86667
0.87059
0.86078
0.84118
0.83137
0.81569
0.81176
0.80588
0.81176
0.81176
0.81569
0.83137
0.82549
0.81569
0.88039
0.90588
0.91176
0.8902
0.8902
0.88039
0.88627
0.8902
0.8902
0.8902
0.89608
0.88627
0.88627
0.88039
0.88039
0.88039
0.88039
0.88627
0.8902
0.8902
0.88627
0.88627
0.8902
0.88627
0.88627
0.88627
0.88627
0.88039
0.88039
0.88627
0.88627
0.88627
0.88039
0.88039
0.87059
0.86667
0.85098
0.82157
0.81176
0.79608
0.7549
0.74118
0.75098
0.75098
0.78627
0.81569
0.83529
0.86667
