0.38431
0.38431
0.38431
0.38431
0.3902
0.3902
0.3902
0.37451
0.34902
0.3451
0.47059
0.7
0.8451
0.78039
0.61961
0.4902
0.42549
0.39412
0.38039
0.37451
0.37451
0.37451
0.38039
0.38431
0.38431
0.3902
0.39412
0.4
0.40392
0.41569
0.42549
0.43529
0.4451
0.46078
0.47059
0.48431
0.4902
0.5
0.5
0.48431
0.46471
0.43922
0.42549
0.41569
0.4
0.39412
0.3902
0.38431
0.38039
0.37451
0.37059
0.36471
0.35882
0.37059
0.38039
0.38431
0.38431
0.38431
0.38431
0.3902
0.38431
0.38431
0.3902
0.38431
0.38431
0.38039
0.38431
0.38039
0.37451
0.37451
0.37451
0.37451
0.37451
0.38039
0.38431
0.38431
0.38431
0.38431
0.3902
0.39412
0.4
0.41569
0.41961
0.41569
0.4098
0.40392
0.39412
0.38039
0.37451
0.37451
0.37059
0.37059
0.37451
0.37059
0.3451
0.33529
0.39412
0.5902
0.78627
0.81569
0.6549
0.51569
0.43529
0.4
0.38039
0.37059
0.36471
0.35882
0.36471
0.37059
0.37451
0.38431
0.39412
0.4
0.4
0.40392
0.41569
0.42549
0.43922
0.4549
0.46471
0.47451
0.48431
0.4902
0.49412
0.49412
0.48431
0.47059
0.4451
0.41961
0.4
0.38039
0.37059
0.35882
0.35882
0.35882
0.35882
0.3549
0.3549
0.35882
0.35882
0.3549
0.3549
0.3549
0.35882
0.36471
0.36471
0.36471
0.37059
0.37059
0.37059
0.37451
0.37451
0.38039
0.38039
0.38039
0.38039
0.37451
0.37059
0.37059
0.37059
0.37451
0.37451
0.38431
0.3902
0.39412
0.4
0.41569
0.41961
0.41961
0.41961
0.41961
0.4098
0.4
0.39412
0.39412
0.38431
0.38431
0.38431
0.38039
0.36471
0.34902
0.3902
0.5549
0.7549
0.81176
0.68039
0.52549
0.43529
0.40392
0.39412
0.38431
0.38039
0.37451
0.37451
0.38039
0.38039
0.38431
0.4
0.40392
0.4098
0.41569
0.42549
0.43529
0.43922
0.44902
0.46471
0.48039
0.4902
0.49412
0.50588
0.49412
0.48431
0.47059
0.4549
0.43529
0.41569
0.4
0.38431
0.38039
0.37059
0.36471
0.36471
0.36471
0.37059
0.37059
0.37451
0.38039
0.38039
0.38039
0.38039
0.38431
0.38431
0.38431
0.3902
0.38431
0.38431
0.38431
0.38431
0.38039
0.37451
0.38039
0.38431
0.38431
0.38431
0.38431
0.38431
0.38039
0.38039
0.38039
0.38431
0.38431
0.4
0.41569
0.41569
0.40392
0.4
0.4
0.3902
0.38039
0.38039
0.38039
0.38039
0.38039
0.38039
0.37451
0.3549
0.3451
0.41961
0.61961
0.81176
0.83529
0.6549
0.5098
0.43529
0.40392
0.4
0.3902
0.38431
0.38431
0.38431
0.39412
0.39412
0.39412
0.4
0.40392
0.41569
0.42549
0.43529
0.43922
0.4451
0.44902
0.46471
0.48039
0.4902
0.5
0.50588
0.49412
0.4902
0.47059
0.4451
0.41961
0.39412
0.38431
0.38039
0.38039
0.37451
0.37451
0.37451
0.37451
0.37451
0.38039
0.38039
0.38431
0.3902
0.3902
0.39412
0.38431
0.38431
0.38431
0.38431
0.38431
0.38431
0.3902
0.39412
0.38431
0.38039
0.38039
0.38039
0.38039
0.38039
0.38039
0.38039
0.38039
0.38039
0.38039
0.38431
0.39412
0.4
0.4098
0.41961
0.41961
0.41961
0.41961
0.41569
0.4
0.3902
0.38431
0.38431
0.38431
0.3902
0.39412
0.38039
0.3549
0.37451
0.51569
0.74118
0.8451
0.7549
0.6
0.4902
0.43529
0.4
0.38431
0.37451
0.37059
0.37059
0.37451
0.37451
0.37451
0.37451
0.38039
0.38431
0.38431
0.39412
0.40392
0.41961
0.42941
0.4451
0.46078
0.47059
0.48039
0.48431
0.48431
0.48431
0.47059
0.4549
0.42941
0.40392
0.38431
0.37451
0.37059
0.35882
0.35882
0.35882
0.36471
0.37059
0.37059
0.37059
0.37059
0.36471
0.36471
0.37059
0.37059
0.37451
0.37451
0.37451
0.37059
0.37059
0.37059
0.37059
0.37059
0.37059
0.37059
0.37059
0.37059
0.36471
0.36471
0.35882
0.36471
0.36471
0.37059
0.37451
0.38039
0.38431
0.39412
0.4
0.40392
0.4
0.4
0.4
0.39412
0.38431
0.38039
0.37451
0.37451
0.37451
0.37451
0.37059
0.34902
0.3549
0.46471
0.67647
0.82157
0.76667
0.60588
0.47451
0.41961
0.40392
0.39412
0.38039
0.37451
0.37451
0.37451
0.38039
0.38039
0.38431
0.39412
0.4
0.40392
0.40392
0.4098
0.41569
0.42941
0.4451
0.46078
0.47451
0.4902
0.49412
0.49412
0.48431
0.47059
0.4549
0.43529
0.41569
0.39412
0.38039
0.37059
0.36471
0.35882
0.35882
0.35882
0.35882
0.36471
0.37059
0.37451
0.37059
0.37059
0.37059
0.37059
0.37451
0.37451
0.38039
0.38039
0.38039
0.38431
0.38039
0.37451
0.37059
0.37059
0.37451
0.37451
0.38039
0.38039
0.37451
0.37451
0.37059
0.37451
0.37451
0.38039
0.38431
0.4
0.40392
0.4098
0.4
0.4
0.39412
0.38039
0.37451
0.37451
0.37451
0.37059
0.37059
0.37451
0.35882
0.33922
0.33529
0.46078
0.67059
0.81176
0.7451
0.58431
0.46078
0.4
0.38431
0.37451
0.36471
0.36471
0.36471
0.37059
0.37059
0.37059
0.37451
0.38039
0.38431
0.39412
0.4
0.4098
0.41569
0.42549
0.43922
0.44902
0.46471
0.48039
0.4902
0.49412
0.48431
0.47059
0.4451
0.41961
0.39412
0.37451
0.37059
0.35882
0.3549
0.3549
0.3549
0.3549
0.34902
0.34902
0.3549
0.3549
0.35882
0.36471
0.37059
0.37059
0.35882
0.35882
0.35882
0.36471
0.36471
0.37059
0.37059
0.37059
0.37059
0.35882
0.35882
0.3549
0.35882
0.35882
0.36471
0.37059
0.37059
0.37059
0.37451
0.37451
0.38039
0.3902
0.4
0.40392
0.40392
0.40392
0.39412
0.38431
0.37451
0.37059
0.37059
0.37059
0.37059
0.37451
0.36471
0.33922
0.33529
0.46078
0.68039
0.81569
0.75098
0.5902
0.46471
0.40392
0.38039
0.37059
0.3549
0.3549
0.3549
0.3549
0.35882
0.37059
0.37451
0.37451
0.37451
0.38039
0.3902
0.4
0.41569
0.42941
0.4451
0.46078
0.47451
0.48431
0.4902
0.4902
0.4902
0.48039
0.46078
0.43922
0.41569
0.39412
0.38431
0.37451
0.36471
0.36471
0.37059
0.37059
0.37059
0.37059
0.37059
0.35882
0.35882
0.35882
0.37059
0.37059
0.37059
0.37059
0.37059
0.37059
0.36471
0.36471
0.36471
0.36471
0.37059
0.37451
0.37451
0.37059
0.36471
0.35882
0.35882
0.35882
0.35882
0.36471
0.37059
0.37451
0.38039
0.3902
0.39412
0.39412
0.3902
0.38431
0.38039
0.37059
0.36471
0.35882
0.35882
0.3549
0.35882
0.36471
0.3549
0.33529
0.3549
0.48039
0.69608
0.82157
0.74118
0.58039
0.47059
0.41569
0.3902
0.37451
0.37059
0.35882
0.35882
0.35882
0.35882
0.35882
0.37059
0.37451
0.38039
0.38431
0.3902
0.39412
0.40392
0.41569
0.42941
0.4451
0.46471
0.47451
0.48039
0.48431
0.47059
0.4549
0.43922
0.41961
0.4
0.38431
0.37451
0.36471
0.35882
0.35882
0.35882
0.35882
0.35882
0.36471
0.37059
0.37451
0.37451
0.37059
0.37059
0.37451
0.37451
0.37451
0.37451
0.37451
0.37451
0.37059
0.36471
0.35882
0.35882
0.3549
0.35882
0.35882
0.35882
0.35882
0.35882
0.3549
0.3549
0.3549
0.35882
0.37059
0.38039
0.39412
0.4
0.4
0.39412
0.39412
0.38431
0.37451
0.37059
0.37059
0.37059
0.37451
0.37059
0.36471
0.34902
0.32941
0.36471
0.51961
0.74118
0.80588
0.6902
0.52941
0.42941
0.3902
0.38039
0.37451
0.37059
0.37059
0.37451
0.38039
0.38039
0.38039
0.38039
0.38431
0.39412
0.4
0.4098
0.41961
0.42941
0.43922
0.44902
0.46471
0.48039
0.4902
0.49412
0.5
0.4902
0.47451
0.4549
0.42941
0.40392
0.3902
0.38039
0.37451
0.37451
0.37059
0.37059
0.37059
0.37059
0.37059
0.37059
0.37059
0.37451
0.38039
0.38039
0.37451
0.37451
0.37451
0.37451
0.37451
0.37451
0.38039
0.38431
0.38431
0.38431
0.38431
0.38039
0.37451
0.37451
0.37451
0.37451
0.37451
0.38039
0.38039
0.38431
0.3902
0.39412
0.40392
0.4098
0.4098
0.4098
0.40392
0.39412
0.38431
0.38039
0.38039
0.38039
0.38039
0.38039
0.37059
0.3549
0.34902
0.43529
0.63529
0.80588
0.81569
0.61961
0.48431
0.42549
0.4
0.38431
0.37451
0.37059
0.37059
0.37451
0.38039
0.38431
0.3902
0.3902
0.39412
0.39412
0.4
0.41569
0.42549
0.43922
0.44902
0.46471
0.47451
0.48431
0.4902
0.4902
0.49412
0.48039
0.46471
0.43922
0.41961
0.39412
0.38039
0.37059
0.36471
0.35882
0.35882
0.37059
0.37059
0.37059
0.37059
0.37059
0.37059
0.37059
0.37059
0.37451
0.38039
0.38039
0.38039
0.38039
0.38039
0.37451
0.37451
0.37451
0.38039
0.38039
0.38039
0.38039
0.37451
0.37059
0.37059
0.37059
0.37451
0.37451
0.38431
0.4
0.40392
0.4098
0.4098
0.41569
0.41569
0.40392
0.4
0.3902
0.38039
0.38039
0.38039
0.38039
0.37451
0.37059
0.3549
0.3451
0.41569
0.6098
0.81176
0.84118
0.66471
0.51961
0.43922
0.4098
0.39412
0.38431
0.38039
0.38039
0.37451
0.37451
0.38039
0.38431
0.38431
0.39412
0.40392
0.41569
0.41569
0.42549
0.43529
0.4451
0.46078
0.47451
0.4902
0.49412
0.50588
0.49412
0.48431
0.47059
0.44902
0.42941
0.40392
0.39412
0.3902
0.38431
0.38039
0.37451
0.37451
0.37451
0.37451
0.37451
0.37451
0.37451
0.37451
0.38039
0.38039
0.38039
0.38039
0.38039
0.38039
0.38431
0.38431
0.38431
0.38039
0.38039
0.37451
0.37451
0.37451
0.37451
0.38039
0.37451
0.37451
0.37451
0.37451
0.38039
0.38039
0.39412
0.40392
0.4098
0.41569
0.40392
0.40392
0.39412
0.38039
0.37451
0.37059
0.37059
0.37451
0.37451
0.37451
0.3549
0.33529
0.3549
0.4902
0.7098
0.82157
0.73137
0.57059
0.46078
0.41569
0.39412
0.38039
0.37059
0.37059
0.37059
0.37451
0.38039
0.38039
0.38431
0.38431
0.38431
0.39412
0.4
0.41569
0.42549
0.43922
0.44902
0.46078
0.47059
0.48431
0.4902
0.4902
0.48431
0.47059
0.4549
0.42941
0.4098
0.39412
0.38039
0.37059
0.37059
0.37451
0.37451
0.37451
0.37451
0.37451
0.37451
0.38039
0.38431
0.3902
0.3902
0.3902
0.3902
0.3902
0.38431
0.38431
0.38431
0.3902
0.39412
0.39412
0.3902
0.3902
0.38431
0.38431
0.38039
0.38039
0.38431
0.38431
0.3902
0.39412
0.4
0.40392
0.41569
0.41961
0.42549
0.42549
0.42549
0.41961
0.40392
0.39412
0.3902
0.38431
0.38039
0.38039
0.38039
0.37059
0.34902
0.35882
0.48431
0.69608
0.81569
0.73529
0.57451
0.4549
0.4098
0.39412
0.38431
0.37451
0.37451
0.37451
0.38039
0.38431
0.38431
0.39412
0.4
0.4
0.40392
0.41569
0.41961
0.42549
0.43922
0.4549
0.47451
0.4902
0.49412
0.50588
0.5
0.4902
0.47059
0.4549
0.43529
0.41961
0.4
0.38431
0.37451
0.36471
0.36471
0.35882
0.35882
0.35882
0.37059
0.37059
0.37059
0.37451
0.37451
0.37451
0.38039
0.38039
0.38039
0.38431
0.38431
0.38431
0.38431
0.38039
0.38039
0.38039
0.38039
0.38431
0.38431
0.38431
0.38431
0.3902
0.38431
0.38431
0.39412
0.4
0.4098
0.41961
0.42941
0.43529
0.43529
0.43529
0.42549
0.41569
0.4
0.39412
0.39412
0.39412
0.3902
0.38431
0.37451
0.3549
0.33922
0.4098
0.60588
0.79608
0.82549
0.66078
0.51569
0.42941
0.4
0.3902
0.38039
0.38039
0.38039
0.38431
0.38431
0.38431
0.38431
0.38431
0.39412
0.4
0.4098
0.41961
0.43529
0.43922
0.44902
0.46078
0.47451
0.4902
0.49412
0.50588
0.5
0.4902
0.47059
0.4549
0.42941
0.4098
0.39412
0.38431
0.38039
0.38039
0.38039
0.37451
0.37451
0.37451
0.37451
0.37451
0.38039
0.38039
0.38431
0.38431
0.38431
0.38431
0.38431
0.38431
0.38431
0.38431
0.38431
0.3902
0.3902
0.38431
0.38431
0.38039
0.38039
0.38431
0.38431
0.3902
0.39412
0.39412
0.39412
0.4
0.4
0.40392
0.41569
0.41961
0.41961
0.41961
0.41961
0.41569
0.4
0.38431
0.38431
0.38039
0.38431
0.38431
0.38431
0.36471
0.33922
0.37451
0.53922
0.76078
0.83529
0.72157
0.57059
0.47059
0.41961
0.39412
0.37451
0.37059
0.37059
0.37059
0.37451
0.38039
0.38431
0.38431
0.38431
0.3902
0.39412
0.40392
0.41569
0.42941
0.43922
0.4549
0.47059
0.48039
0.4902
0.49412
0.49412
0.48431
0.47059
0.4549
0.43529
0.4098
0.3902
0.38039
0.37451
0.37059
0.37059
0.37451
0.37451
0.38039
0.38039
0.38039
0.37451
0.37059
0.37059
0.37451
0.38039
0.38039
0.38431
0.38431
0.38039
0.37451
0.37451
0.38039
0.38039
0.38039
0.38039
0.38039
0.38039
0.38039
0.37451
0.37451
0.38039
0.38039
0.3902
0.39412
0.4
0.40392
0.41569
0.41961
0.41569
0.41569
0.41569
0.40392
0.3902
0.38431
0.38039
0.38039
0.37451
0.37451
0.37059
0.3549
0.34902
0.42941
0.62941
0.8
0.81569
0.62549
0.4902
0.41961
0.39412
0.3902
0.38039
0.38039
0.38039
0.38039
0.38039
0.38039
0.38431
0.3902
0.39412
0.4
0.4098
0.41961
0.42549
0.43529
0.4451
0.46471
0.48039
0.4902
0.49412
0.5
0.49412
0.48039
0.46471
0.43922
0.41961
0.40392
0.39412
0.38431
0.38039
0.37451
0.37059
0.37059
0.37059
0.37451
0.37451
0.38039
0.38039
0.38039
0.37451
0.37451
0.37451
0.37451
0.37451
0.38039
0.38039
0.38431
0.38431
0.38039
0.38039
0.37451
0.37451
0.38039
0.38039
0.38039
0.38431
0.38431
0.38039
0.38039
0.38039
0.3902
0.4
0.4098
0.41961
0.41961
0.41569
0.40392
0.4
0.38431
0.38039
0.38039
0.38039
0.37451
0.37451
0.37059
0.3549
0.32941
0.34902
0.4902
0.71569
0.81569
0.71569
0.5549
0.44902
0.4
0.38431
0.38039
0.37451
0.37059
0.37059
0.37451
0.38039
0.38039
0.38039
0.38039
0.38431
0.3902
0.39412
0.4098
0.41961
0.43529
0.4451
0.4549
0.46471
0.48039
0.48431
0.4902
0.48431
0.47059
0.44902
0.42941
0.40392
0.38431
0.38039
0.37451
0.37059
0.37059
0.37451
0.37451
0.37451
0.37059
0.37059
0.37059
0.37451
0.38039
0.38431
0.38431
0.38431
0.38039
0.38039
0.38431
0.38039
0.38039
0.38039
0.38431
0.38431
0.38431
0.38039
0.38039
0.38039
0.38039
0.38039
0.38431
0.3902
0.39412
0.4
0.40392
0.40392
0.4098
0.41569
0.41961
0.41569
0.4098
0.4
0.3902
0.38039
0.37451
0.37451
0.37451
0.37451
0.37059
0.34902
0.33922
0.41569
0.6098
0.79608
0.81569
0.64118
0.5
0.42549
0.4
0.3902
0.38431
0.38039
0.37451
0.37451
0.38039
0.38431
0.3902
0.39412
0.4
0.4
0.40392
0.40392
0.41961
0.43529
0.4451
0.46078
0.47059
0.48431
0.4902
0.49412
0.4902
0.47059
0.4549
0.43529
0.41569
0.39412
0.37451
0.36471
0.35882
0.3549
0.3549
0.3549
0.35882
0.36471
0.36471
0.36471
0.37059
0.37059
0.37059
0.37059
0.37059
0.37059
0.37451
0.38039
0.38431
0.38039
0.37059
0.37059
0.37451
0.37451
0.37451
0.37451
0.38039
0.37451
0.37059
0.37059
0.36471
0.36471
0.37059
0.38039
0.38431
0.3902
0.4
0.40392
0.40392
0.4
0.4
0.4
0.39412
0.38431
0.38039
0.37451
0.37059
0.37059
0.37059
0.35882
0.33922
0.33529
0.4451
0.6549
0.80588
0.7549
0.6
0.47059
0.4098
0.38431
0.37451
0.36471
0.35882
0.3549
0.3549
0.3549
0.35882
0.35882
0.37059
0.37451
0.38431
0.3902
0.39412
0.40392
0.41961
0.42941
0.4451
0.46078
0.47059
0.48039
0.48431
0.47451
0.46078
0.43922
0.41961
0.39412
0.37451
0.36471
0.35882
0.3549
0.34902
0.3451
0.34902
0.3549
0.3549
0.3549
0.3549
0.35882
0.35882
0.36471
0.37059
0.36471
0.35882
0.36471
0.37059
0.37059
0.37059
0.37059
0.37059
0.36471
0.35882
0.35882
0.37059
0.37059
0.37059
0.37059
0.37059
0.35882
0.35882
0.37059
0.37451
0.38039
0.39412
0.40392
0.4098
0.40392
0.40392
0.39412
0.38431
0.37451
0.37059
0.37451
0.37451
0.37059
0.35882
0.34902
0.32941
0.32353
0.43922
0.6549
0.8
0.74118
0.58039
0.4549
0.4
0.38039
0.37451
0.37059
0.37059
0.37059
0.37451
0.38039
0.38039
0.37451
0.38039
0.38431
0.38431
0.4
0.41569
0.42549
0.43922
0.44902
0.46471
0.48039
0.48431
0.4902
0.4902
0.48431
0.47451
0.4549
0.43529
0.4098
0.3902
0.37451
0.37451
0.37059
0.37059
0.37059
0.37059
0.37059
0.37059
0.37059
0.37059
0.37059
0.37059
0.37451
0.38039
0.38039
0.37451
0.37451
0.37059
0.37059
0.37451
0.37451
0.38039
0.38039
0.38039
0.37451
0.38039
0.37451
0.37451
0.37451
0.37451
0.38039
0.38431
0.3902
0.39412
0.4
0.40392
0.4098
0.41569
0.41961
0.42549
0.41961
0.40392
0.3902
0.38039
0.38039
0.37451
0.37451
0.37451
0.37451
0.3549
0.3451
0.41961
0.61569
0.7902
0.81176
0.62549
0.4902
0.41961
0.39412
0.38039
0.37451
0.36471
0.36471
0.37059
0.37451
0.38039
0.38431
0.38431
0.39412
0.39412
0.4
0.40392
0.41961
0.43529
0.4451
0.46471
0.48039
0.48431
0.4902
0.49412
0.4902
0.48039
0.46471
0.4451
0.42549
0.40392
0.38431
0.37451
0.37059
0.36471
0.35882
0.36471
0.37059
0.37059
0.37059
0.37451
0.37451
0.37059
0.37059
0.37451
0.38039
0.38039
0.38039
0.38039
0.38039
0.37451
0.37451
0.38039
0.38039
0.38431
0.38431
0.38431
0.38431
0.38039
0.38039
0.38431
0.38431
0.38431
0.39412
0.4
0.4098
0.41569
0.41961
0.42549
0.41961
0.41961
0.41961
0.4098
0.4
0.3902
0.38431
0.38431
0.38431
0.38039
0.38039
0.37059
0.34902
0.39412
0.56471
0.77647
0.82549
0.69608
0.5451
0.44902
0.4098
0.39412
0.38039
0.37451
0.37059
0.37059
0.37059
0.37059
0.37451
0.38039
0.3902
0.4
0.40392
0.4098
0.41961
0.42941
0.43922
0.4549
0.47059
0.48431
0.49412
0.49412
0.4902
0.48039
0.46078
0.43922
0.41961
0.40392
0.38431
0.37451
0.37059
0.35882
0.35882
0.3549
0.35882
0.36471
0.37059
0.37451
0.37451
0.37059
0.37059
0.37059
0.37059
0.37059
0.37451
0.37451
0.38039
0.38039
0.38039
0.38039
0.37451
0.37059
0.37059
0.37059
0.37451
0.37059
0.37059
0.37059
0.37059
0.37059
0.37059
0.38039
0.38039
0.3902
0.4
0.40392
0.40392
0.4
0.39412
0.3902
0.38039
0.37059
0.37059
0.37059
0.37059
0.36471
0.35882
0.34902
0.32941
0.3451
0.4902
0.7098
0.81176
0.70588
0.5451
0.43922
0.39412
0.37451
0.37059
0.35882
0.35882
0.35882
0.37059
0.37059
0.37059
0.37059
0.37059
0.38039
0.3902
0.4
0.41569
0.42549
0.42941
0.43922
0.4549
0.47059
0.48431
0.4902
0.4902
0.48431
0.47059
0.4451
0.41961
0.39412
0.38039
0.37451
0.37059
0.37059
0.36471
0.35882
0.36471
0.35882
0.35882
0.35882
0.37059
0.37059
0.37451
0.38039
0.38039
0.37451
0.37059
0.37059
0.37059
0.37451
0.37451
0.37451
0.37451
0.37451
0.37451
0.37059
0.37059
0.37059
0.37059
0.37059
0.37451
0.37451
0.38039
0.38431
0.3902
0.39412
0.40392
0.41961
0.42549
0.42549
0.42549
0.41569
0.39412
0.38431
0.37451
0.37451
0.37451
0.37451
0.38039
0.37059
0.3451
0.33529
0.4451
0.66078
0.80588
0.7549
0.59608
0.46471
0.4098
0.3902
0.38039
0.37059
0.37059
0.37059
0.37451
0.38039
0.38431
0.38431
0.3902
0.39412
0.39412
0.40392
0.41961
0.43529
0.4451
0.46078
0.47059
0.48039
0.4902
0.4902
0.49412
0.4902
0.48039
0.46471
0.4451
0.41961
0.4
0.38039
0.37451
0.37059
0.36471
0.37059
0.37059
0.37451
0.37059
0.37059
0.37451
0.37451
0.37451
0.37451
0.38039
0.38039
0.38039
0.38039
0.38039
0.37451
0.37451
0.38039
0.38039
0.38039
0.38039
0.38039
0.37451
0.37059
0.37059
0.37451
0.37451
0.38039
0.38039
0.3902
0.39412
0.4
0.40392
0.4098
0.41569
0.41961
0.41961
0.42549
0.4098
0.39412
0.38431
0.38431
0.38039
0.38039
0.38039
0.38039
0.35882
0.34902
0.4098
0.5902
0.78627
0.82157
0.66078
0.51961
0.43529
0.40392
0.39412
0.38431
0.37451
0.37059
0.37059
0.37451
0.38039
0.3902
0.4
0.4
0.40392
0.41569
0.41961
0.43529
0.44902
0.46471
0.47451
0.4902
0.5
0.50588
0.5098
0.50588
0.49412
0.48039
0.46078
0.43529
0.41569
0.40392
0.39412
0.38431
0.38039
0.38039
0.38039
0.38039
0.38039
0.38431
0.38431
0.38431
0.38039
0.38039
0.38039
0.38431
0.3902
0.3902
0.39412
0.39412
0.3902
0.3902
0.3902
0.38431
0.38431
0.38431
0.38431
0.38431
0.38431
0.38431
0.38431
0.38431
0.38431
0.38431
0.39412
0.4
0.40392
0.4098
0.41569
0.41569
0.4098
0.40392
0.40392
0.4
0.3902
0.38431
0.38039
0.38039
0.37451
0.37451
0.37059
0.34902
0.33922
0.4
0.5902
0.7902
0.82549
0.67059
0.52549
0.43922
0.40392
0.39412
0.38431
0.38039
0.38039
0.38039
0.37451
0.37451
0.38039
0.38431
0.3902
0.39412
0.4
0.4098
0.41569
0.42549
0.43529
0.44902
0.46471
0.48039
0.4902
0.49412
0.4902
0.47059
0.4549
0.42941
0.40392
0.38431
0.37451
0.36471
0.35882
0.3549
0.3549
0.3549
0.3549
0.3549
0.35882
0.37059
0.37059
0.37059
0.37059
0.37451
0.37059
0.37451
0.37451
0.37451
0.37451
0.38039
0.37451
0.37451
0.37059
0.37059
0.37059
0.37451
0.37451
0.37451
0.38039
0.37451
0.37451
0.37451
0.38039
0.38431
0.3902
0.4
0.41569
0.41961
0.41961
0.41569
0.40392
0.39412
0.38431
0.38039
0.38431
0.38431
0.38039
0.38039
0.37059
0.34902
0.33922
0.41569
0.6098
0.78627
0.80588
0.62549
0.48431
0.4098
0.38431
0.37451
0.37059
0.37059
0.37059
0.37451
0.38039
0.38431
0.38431
0.38431
0.38431
0.39412
0.40392
0.41569
0.42549
0.43922
0.44902
0.46471
0.48039
0.4902
0.49412
0.5
0.49412
0.48431
0.47059
0.4451
0.41569
0.39412
0.38039
0.37451
0.37059
0.37059
0.37451
0.37451
0.37451
0.37451
0.37451
0.37059
0.37059
0.37451
0.38039
0.38039
0.38039
0.38039
0.37451
0.37451
0.37059
0.37451
0.37451
0.37451
0.38039
0.38039
0.37451
0.37451
0.37059
0.37059
0.37059
0.37451
0.37451
0.38431
0.3902
0.39412
0.4
0.40392
0.4098
0.41569
0.41569
0.41569
0.40392
0.39412
0.38039
0.38039
0.37451
0.37451
0.37451
0.37451
0.35882
0.3451
0.3902
0.5549
0.76078
0.81176
0.68039
0.52549
0.43529
0.40392
0.39412
0.38431
0.37451
0.37451
0.37451
0.37451
0.38039
0.38431
0.39412
0.4
0.40392
0.4098
0.41569
0.41961
0.43529
0.4451
0.46471
0.48039
0.4902
0.49412
0.50588
0.49412
0.48431
0.47059
0.4549
0.43529
0.41569
0.4
0.3902
0.38039
0.37059
0.37059
0.37059
0.37059
0.37451
0.38039
0.38039
0.38431
0.38039
0.37451
0.37451
0.38039
0.38039
0.38039
0.38431
0.38431
0.38431
0.38431
0.38431
0.38039
0.38039
0.38039
0.38039
0.38039
0.38431
0.38431
0.38431
0.38431
0.38431
0.3902
0.4
0.40392
0.41569
0.42549
0.42549
0.41961
0.41961
0.41569
0.40392
0.39412
0.3902
0.3902
0.39412
0.3902
0.3902
0.38431
0.36471
0.34902
0.41569
0.6098
0.8
0.83529
0.67059
0.52549
0.43922
0.4098
0.39412
0.39412
0.38431
0.38431
0.38431
0.3902
0.3902
0.3902
0.39412
0.4
0.40392
0.41569
0.41961
0.43529
0.43922
0.4451
0.46078
0.47059
0.48431
0.49412
0.5
0.50588
0.4902
0.47059
0.44902
0.42549
0.4
0.3902
0.38431
0.38039
0.38039
0.38039
0.38039
0.37451
0.37451
0.37451
0.37451
0.38039
0.38431
0.38431
0.38039
0.37451
0.37451
0.37451
0.37451
0.37451
0.38039
0.38039
0.38039
0.37451
0.37451
0.37451
0.37451
0.37451
0.37451
0.38039
0.38039
0.38039
0.38039
0.38431
0.3902
0.39412
0.4
0.4098
0.41961
0.41961
0.41961
0.41569
0.40392
0.38431
0.38039
0.37451
0.37451
0.37451
0.37451
0.37451
0.35882
0.33529
0.3451
0.46471
0.68039
0.81176
0.74118
0.58431
0.47059
0.41569
0.39412
0.38039
0.37059
0.36471
0.37059
0.37451
0.38039
0.38431
0.38431
0.38431
0.38431
0.39412
0.40392
0.41961
0.42549
0.43922
0.44902
0.46471
0.48039
0.48431
0.4902
0.49412
0.4902
0.48039
0.46078
0.43529
0.4098
0.38431
0.37059
0.35882
0.3549
0.3549
0.35882
0.35882
0.35882
0.35882
0.36471
0.37059
0.37059
0.37059
0.37451
0.38039
0.38039
0.38431
0.38039
0.37451
0.37451
0.37451
0.38039
0.38039
0.38039
0.38039
0.38039
0.37451
0.37059
0.37059
0.37059
0.37059
0.37451
0.38039
0.3902
0.39412
0.4
0.40392
0.4098
0.41569
0.41569
0.41569
0.41569
0.4
0.3902
0.38431
0.38039
0.38039
0.38039
0.38431
0.38039
0.35882
0.3549
0.4451
0.65098
0.80588
0.81176
0.60588
0.47451
0.41569
0.4
0.39412
0.38039
0.37059
0.37059
0.37059
0.37451
0.38039
0.38431
0.3902
0.39412
0.39412
0.4
0.40392
0.41961
0.42941
0.4451
0.46471
0.47451
0.48431
0.49412
0.49412
0.48431
0.47451
0.46078
0.43922
0.41961
0.4
0.38431
0.37451
0.36471
0.35882
0.35882
0.35882
0.36471
0.37059
0.37059
0.37451
0.37451
0.37451
0.37451
0.37451
0.37451
0.38039
0.38431
0.38431
0.38431
0.38039
0.38039
0.38039
0.38039
0.38039
0.38039
0.38039
0.38039
0.38431
0.38431
0.38039
0.37451
0.37451
0.38039
0.38431
0.39412
0.4098
0.41569
0.41569
0.40392
0.40392
0.4
0.39412
0.38431
0.38431
0.38431
0.38039
0.38039
0.37451
0.36471
0.3451
0.36471
0.48431
0.70588
0.82549
0.7451
0.58431
0.46078
0.40392
0.3902
0.38039
0.37451
0.37451
0.37451
0.38039
0.38039
0.38039
0.38039
0.38431
0.39412
0.4
0.41569
0.41961
0.42549
0.43529
0.4451
0.46078
0.47059
0.48431
0.4902
0.49412
0.48431
0.47451
0.4549
0.43529
0.4098
0.39412
0.38431
0.38039
0.37451
0.37059
0.37059
0.37059
0.36471
0.35882
0.36471
0.37451
0.38039
0.37451
0.37451
0.37451
0.37451
0.37451
0.38039
0.38039
0.38039
0.38039
0.38039
0.37451
0.37451
0.37451
0.37451
0.37059
0.37059
0.37059
0.37451
0.37451
0.37059
0.37059
0.37451
0.38039
0.38431
0.4
0.4098
0.41569
0.41569
0.4098
0.40392
0.39412
0.38039
0.38039
0.38039
0.38039
0.38039
0.38039
0.37451
0.34902
0.33529
0.3902
0.58431
0.7902
0.82549
0.67059
0.52941
0.4451
0.40392
0.38431
0.37451
0.37059
0.37059
0.37059
0.37451
0.37451
0.38039
0.38039
0.38039
0.38039
0.38431
0.39412
0.40392
0.41569
0.41961
0.43529
0.43922
0.44902
0.4549
0.46471
0.47059
0.46078
0.4451
0.41961
0.39412
0.37059
0.34902
0.33529
0.32353
0.31961
0.32353
0.32941
0.32941
0.33529
0.33529
0.32353
0.31961
0.31961
0.32941
0.33529
0.33529
0.33922
0.33529
0.33529
0.33529
0.33529
0.33922
0.34902
0.34902
0.3549
0.3549
0.3549
0.3549
0.35882
0.36471
0.37059
0.37451
0.38039
0.38431
0.39412
0.39412
0.4
0.4098
0.41569
0.41961
0.41961
0.41961
0.41569
0.4
0.38431
0.38039
0.38039
0.38039
0.38039
0.37451
0.3549
0.3451
0.42549
0.62941
0.8
0.81176
0.61569
0.47451
0.4098
0.39412
0.38431
0.38039
0.37059
0.36471
0.36471
0.37451
0.3902
0.4
0.4098
0.40392
0.4
0.39412
0.40392
0.41569
0.42549
0.43922
0.4549
0.47059
0.48039
0.48431
0.48039
0.47059
0.46078
0.43922
0.41961
0.40392
0.38431
0.37451
0.36471
0.3549
0.3549
0.3549
0.35882
0.37059
0.37451
0.38039
0.38039
0.38431
0.38431
0.3902
0.39412
0.39412
0.39412
0.4
0.4
0.39412
0.39412
0.38431
0.38431
0.38039
0.38039
0.38039
0.38039
0.37451
0.37451
0.37451
0.37059
0.37059
0.37451
0.38431
0.4
0.40392
0.41961
0.42549
0.42549
0.42549
0.42549
0.41961
0.41569
0.40392
0.40392
0.4
0.39412
0.3902
0.3902
0.38039
0.36471
0.3902
0.52941
0.7451
0.83137
0.72549
0.56078
0.4549
0.4098
0.39412
0.3902
0.38431
0.38431
0.38431
0.38431
0.38431
0.38431
0.38431
0.39412
0.40392
0.4098
0.41961
0.42549
0.43529
0.43922
0.4549
0.47451
0.4902
0.5
0.50588
0.5098
0.50588
0.4902
0.46471
0.43922
0.41569
0.4
0.39412
0.38431
0.38039
0.38039
0.37451
0.37451
0.37451
0.37451
0.37451
0.38039
0.38431
0.38431
0.38431
0.38039
0.38039
0.38039
0.38039
0.38039
0.38431
0.38431
0.38431
0.38431
0.38039
0.37451
0.37451
0.37451
0.37451
0.37451
0.37451
0.37451
0.37451
0.37451
0.38039
0.38431
0.39412
0.40392
0.4098
0.41569
0.4098
0.4
0.38039
0.36471
0.35882
0.3549
0.35882
0.35882
0.35882
0.3549
0.33529
0.32353
0.4
0.6
0.78627
0.8
0.61569
0.47451
0.4
0.37059
0.3549
0.33922
0.33922
0.33529
0.33529
0.33922
0.3451
0.34902
0.34902
0.34902
0.34902
0.3549
0.36471
0.37451
0.39412
0.40392
0.41961
0.42941
0.43922
0.4451
0.4451
0.44902
0.43529
0.41569
0.4
0.37451
0.34902
0.33529
0.31961
0.31373
0.31373
0.31373
0.31373
0.31373
0.3098
0.30392
0.30392
0.30392
0.30392
0.3098
0.3098
0.31373
0.31373
0.3098
0.3098
0.3098
0.30392
0.30392
0.30392
0.30392
0.30392
0.30392
0.30392
0.30392
0.30392
0.30392
0.30392
0.30392
0.3098
0.31373
0.31961
0.32353
0.32941
0.33529
0.33529
0.33922
0.33922
0.33922
0.32941
0.31373
0.30392
0.30392
0.3
0.29412
0.3
0.29412
0.27843
0.26863
0.34902
0.5549
0.73137
0.7451
0.56471
0.43529
0.36471
0.32941
0.31373
0.3098
0.3
0.29412
0.29412
0.29412
0.3
0.30392
0.3098
0.31373
0.31961
0.32941
0.32941
0.33922
0.3549
0.37059
0.38039
0.4
0.41569
0.41961
0.42549
0.41961
0.40392
0.3902
0.37059
0.34902
0.33529
0.31961
0.31373
0.31373
0.3098
0.3098
0.3098
0.3098
0.31373
0.31961
0.31961
0.32353
0.32353
0.32353
0.32941
0.32941
0.33529
0.33529
0.33922
0.3451
0.33922
0.33922
0.33922
0.33922
0.33922
0.33922
0.33922
0.3451
0.33922
0.33922
0.33922
0.33922
0.34902
0.3549
0.35882
0.37451
0.38431
0.3902
0.39412
0.39412
0.38039
0.37059
0.35882
0.3549
0.3549
0.35882
0.36471
0.35882
0.34902
0.32941
0.32353
0.42941
0.64118
0.79608
0.7549
0.6
0.46471
0.40392
0.38431
0.37059
0.35882
0.35882
0.37059
0.37059
0.37059
0.37451
0.38039
0.38039
0.38039
0.39412
0.40392
0.41569
0.41961
0.43529
0.43922
0.44902
0.46078
0.47451
0.48431
0.48431
0.4902
0.47451
0.4549
0.42941
0.40392
0.3902
0.37451
0.37059
0.36471
0.36471
0.36471
0.36471
0.37059
0.37059
0.36471
0.36471
0.37059
0.37451
0.37451
0.37451
0.38039
0.38431
0.38039
0.38039
0.38039
0.38039
0.38039
0.37451
0.37451
0.38039
0.37451
0.37059
0.37059
0.37059
0.37059
0.37059
0.38039
0.38431
0.38431
0.39412
0.4
0.40392
0.41569
0.41569
0.41961
0.40392
0.39412
0.38431
0.38431
0.38431
0.38431
0.38431
0.38431
0.37451
0.35882
0.38039
0.5098
0.72549
0.83137
0.73529
0.58039
0.46471
0.41961
0.40392
0.39412
0.38431
0.38431
0.38431
0.3902
0.39412
0.39412
0.4
0.4098
0.41569
0.41569
0.41961
0.42549
0.43529
0.4451
0.46471
0.48039
0.4902
0.50588
0.5098
0.50588
0.49412
0.48431
0.46471
0.4451
0.42549
0.4098
0.4
0.38431
0.38039
0.38039
0.38039
0.38039
0.38431
0.38431
0.3902
0.39412
0.3902
0.3902
0.3902
0.38431
0.3902
0.39412
0.4
0.4
0.39412
0.39412
0.3902
0.38431
0.38039
0.38039
0.38431
0.38431
0.38431
0.38431
0.38431
0.38431
0.38431
0.39412
0.40392
0.41569
0.42549
0.43529
0.43922
0.43529
0.43529
0.42549
0.41569
0.4
0.4
0.4
0.4
0.4
0.4
0.39412
0.37059
0.38039
0.5
0.72549
0.86078
0.78627
0.62549
0.5
0.43922
0.41569
0.40392
0.4
0.39412
0.39412
0.4
0.40392
0.40392
0.40392
0.4098
0.41961
0.42549
0.42941
0.43922
0.44902
0.46078
0.47059
0.48039
0.49412
0.5098
0.51569
0.52549
0.51961
0.50588
0.48431
0.46471
0.43922
0.41961
0.40392
0.4
0.4
0.39412
0.39412
0.39412
0.3902
0.3902
0.39412
0.4
0.4
0.4
0.40392
0.40392
0.40392
0.4
0.4
0.40392
0.40392
0.40392
0.4098
0.41569
0.41569
0.4098
0.40392
0.40392
0.4
0.39412
0.4
0.4
0.40392
0.4
0.4098
0.41569
0.41961
0.42941
0.43922
0.4451
0.4451
0.43922
0.42941
0.41569
0.4
0.39412
0.39412
0.39412
0.39412
0.39412
0.38039
0.36471
0.4098
0.58431
0.7902
0.83137
0.69608
0.55098
0.46078
0.42941
0.4098
0.4
0.39412
0.3902
0.38431
0.3902
0.39412
0.4
0.40392
0.41569
0.41569
0.41961
0.42549
0.43922
0.4549
0.46471
0.48431
0.5
0.5098
0.51569
0.51961
0.51569
0.5098
0.49412
0.47451
0.4549
0.43922
0.41961
0.4098
0.4
0.39412
0.3902
0.3902
0.39412
0.39412
0.39412
0.39412
0.4
0.4
0.4
0.4
0.4
0.4
0.4
0.4
0.4
0.39412
0.39412
0.4
0.4
0.4
0.40392
0.40392
0.40392
0.40392
0.4
0.4
0.4
0.4
0.4098
0.41961
0.42941
0.43529
0.43922
0.43922
0.43529
0.42549
0.41961
0.41569
0.40392
0.40392
0.40392
0.40392
0.4
0.3902
0.37059
0.36471
0.44902
0.65098
0.82549
0.84118
0.65098
0.5098
0.43922
0.41569
0.40392
0.4
0.4
0.4
0.40392
0.40392
0.40392
0.40392
0.4098
0.41569
0.42549
0.43529
0.4451
0.44902
0.46078
0.47059
0.48039
0.4902
0.50588
0.5098
0.51569
0.51961
0.5098
0.48431
0.46078
0.43529
0.41569
0.4
0.39412
0.39412
0.39412
0.39412
0.39412
0.3902
0.3902
0.38431
0.3902
0.39412
0.4
0.4
0.39412
0.39412
0.39412
0.39412
0.39412
0.4
0.4
0.40392
0.4
0.4
0.4
0.4
0.39412
0.4
0.4
0.4
0.4
0.4
0.40392
0.40392
0.4098
0.41961
0.42549
0.43529
0.43922
0.4451
0.43529
0.41961
0.40392
0.39412
0.3902
0.38431
0.38431
0.39412
0.39412
0.37451
0.36471
0.42549
0.60588
0.79608
0.83137
0.67059
0.52549
0.44902
0.41961
0.40392
0.3902
0.38431
0.38431
0.38431
0.39412
0.4
0.40392
0.40392
0.40392
0.40392
0.41569
0.41961
0.42549
0.43922
0.4549
0.47059
0.48431
0.49412
0.50588
0.50588
0.50588
0.49412
0.48431
0.46078
0.43922
0.41961
0.40392
0.3902
0.38431
0.38039
0.38039
0.38039
0.38039
0.38431
0.38431
0.38431
0.38431
0.38039
0.38431
0.3902
0.39412
0.4
0.4
0.39412
0.39412
0.3902
0.3902
0.38431
0.3902
0.39412
0.4
0.39412
0.39412
0.3902
0.3902
0.38431
0.38431
0.38431
0.39412
0.4
0.40392
0.41569
0.41961
0.42549
0.42549
0.42549
0.41961
0.41569
0.4098
0.4
0.39412
0.38431
0.38431
0.38431
0.3902
0.38039
0.35882
0.38039
0.5098
0.73137
0.84118
0.75098
0.59608
0.48039
0.42941
0.40392
0.3902
0.38431
0.38039
0.38039
0.38039
0.38039
0.38431
0.38431
0.39412
0.4
0.40392
0.4098
0.41961
0.42549
0.43922
0.44902
0.46471
0.48431
0.49412
0.5
0.49412
0.4902
0.48039
0.46078
0.43529
0.41569
0.4
0.39412
0.38431
0.37451
0.37059
0.37059
0.37451
0.37451
0.37451
0.37451
0.37451
0.37451
0.37451
0.37451
0.37451
0.37451
0.38039
0.38039
0.38039
0.38039
0.38039
0.37451
0.37451
0.37451
0.37451
0.38039
0.38039
0.38039
0.38039
0.38039
0.38039
0.38039
0.38039
0.38039
0.3902
0.4
0.4098
0.41569
0.41961
0.41961
0.41569
0.40392
0.39412
0.3902
0.38431
0.38431
0.38431
0.38431
0.38431
0.37059
0.34902
0.36471
0.48431
0.7
0.82157
0.74118
0.57451
0.4549
0.4098
0.3902
0.38039
0.37451
0.37451
0.37451
0.37451
0.37451
0.37451
0.38039
0.38039
0.38431
0.39412
0.40392
0.41569
0.42549
0.43922
0.4549
0.46471
0.48039
0.4902
0.49412
0.5
0.48431
0.47059
0.4549
0.42941
0.4098
0.39412
0.38431
0.37451
0.37059
0.37059
0.37059
0.36471
0.36471
0.37059
0.37059
0.37451
0.38039
0.38431
0.38431
0.38431
0.38431
0.38431
0.38431
0.38431
0.38431
0.39412
0.3902
0.38431
0.38431
0.38431
0.38431
0.38431
0.38431
0.38431
0.38431
0.38039
0.38431
0.38431
0.3902
0.39412
0.4
0.4098
0.41569
0.41961
0.42549
0.41961
0.41569
0.4
0.3902
0.38431
0.38039
0.38039
0.38431
0.38431
0.37059
0.34902
0.3902
0.56078
0.76667
0.81176
0.68039
0.52549
0.43529
0.40392
0.39412
0.38431
0.38039
0.38039
0.38039
0.38431
0.38431
0.39412
0.4
0.4
0.4
0.4
0.4098
0.41961
0.42941
0.4451
0.46078
0.47059
0.48431
0.4902
0.49412
0.49412
0.48431
0.47059
0.4549
0.43529
0.41569
0.39412
0.38431
0.37451
0.37451
0.37059
0.37451
0.38039
0.38039
0.38039
0.37451
0.37451
0.37451
0.37451
0.37451
0.37451
0.38039
0.38431
0.38431
0.38039
0.38039
0.38039
0.38039
0.38039
0.38431
0.38431
0.38431
0.38039
0.37451
0.37451
0.38039
0.38039
0.38431
0.39412
0.4
0.4
0.40392
0.41569
0.41569
0.41569
0.41569
0.41569
0.40392
0.39412
0.38431
0.38039
0.37059
0.37059
0.37059
0.37451
0.35882
0.34902
0.39412
0.56471
0.77059
0.82157
0.68039
0.51961
0.42941
0.4
0.39412
0.38431
0.38039
0.38039
0.38039
0.38039
0.38039
0.3902
0.4
0.40392
0.40392
0.41569
0.41961
0.42549
0.43529
0.4451
0.46078
0.48039
0.4902
0.5
0.50588
0.49412
0.48431
0.47059
0.4549
0.42941
0.41569
0.40392
0.39412
0.38039
0.37451
0.37059
0.37059
0.37451
0.37451
0.37451
0.38039
0.38039
0.38431
0.38431
0.38039
0.38039
0.38039
0.38039
0.38431
0.3902
0.38431
0.38431
0.38431
0.38039
0.38039
0.38039
0.38431
0.38431
0.38431
0.38431
0.38039
0.37451
0.37451
0.38039
0.38431
0.3902
0.4
0.41569
0.41961
0.41569
0.40392
0.40392
0.4
0.39412
0.38431
0.38431
0.38431
0.38431
0.38431
0.38039
0.36471
0.33922
0.35882
0.4902
0.7098
0.82549
0.7451
0.58431
0.47451
0.41961
0.4
0.38431
0.38039
0.38039
0.38039
0.38039
0.37451
0.37451
0.38039
0.38039
0.3902
0.4
0.40392
0.41569
0.41961
0.42941
0.4451
0.4549
0.47059
0.48039
0.4902
0.49412
0.4902
0.47451
0.4549
0.42941
0.4098
0.39412
0.38039
0.37451
0.37059
0.37059
0.37059
0.36471
0.35882
0.36471
0.37059
0.37059
0.37451
0.37451
0.37451
0.37451
0.37059
0.37059
0.37059
0.37059
0.37451
0.38039
0.38039
0.38039
0.37451
0.37451
0.37059
0.37059
0.37059
0.37059
0.37451
0.37451
0.37451
0.37451
0.37451
0.37451
0.38431
0.39412
0.40392
0.40392
0.40392
0.40392
0.39412
0.38039
0.37059
0.37059
0.37059
0.37059
0.37451
0.37451
0.3549
0.33922
0.38431
0.56078
0.76667
0.80588
0.66471
0.51569
0.42941
0.4
0.38431
0.37451
0.37059
0.37059
0.37059
0.37451
0.38039
0.38431
0.3902
0.39412
0.39412
0.4
0.40392
0.41961
0.42941
0.4451
0.46078
0.47059
0.48039
0.48431
0.4902
0.4902
0.48039
0.46471
0.4451
0.42549
0.40392
0.38431
0.38039
0.37059
0.36471
0.36471
0.37059
0.37059
0.37059
0.37059
0.37451
0.37059
0.37059
0.37059
0.37451
0.38039
0.38039
0.38039
0.38039
0.37451
0.37059
0.37451
0.37451
0.37451
0.37059
0.37451
0.37451
0.37451
0.37059
0.37059
0.37059
0.37451
0.38039
0.38431
0.39412
0.4
0.4098
0.41569
0.41569
0.40392
0.40392
0.40392
0.39412
0.38431
0.38039
0.38039
0.38039
0.37451
0.38039
0.37059
0.34902
0.37059
0.50588
0.72157
0.81569
0.71569
0.56078
0.4549
0.4098
0.39412
0.38431
0.38431
0.38039
0.37451
0.38039
0.38039
0.38039
0.3902
0.39412
0.4
0.40392
0.41569
0.41961
0.42549
0.43922
0.44902
0.46471
0.48431
0.49412
0.49412
0.49412
0.48431
0.47059
0.44902
0.42941
0.4098
0.39412
0.38431
0.38039
0.37451
0.37059
0.37059
0.37059
0.37059
0.37059
0.37451
0.38039
0.38039
0.38039
0.37451
0.37451
0.37451
0.37451
0.38039
0.38431
0.38431
0.38039
0.38039
0.37451
0.37059
0.37059
0.37059
0.37451
0.38039
0.38039
0.38039
0.38039
0.37451
0.38039
0.38039
0.38431
0.39412
0.4098
0.41961
0.41569
0.40392
0.4
0.4
0.39412
0.38431
0.38431
0.38431
0.38431
0.38431
0.38039
0.37059
0.34902
0.3451
0.46078
0.68039
0.83529
0.78039
0.61961
0.49412
0.42941
0.4
0.38431
0.38039
0.38039
0.38039
0.38039
0.38431
0.38431
0.38431
0.38431
0.39412
0.4
0.40392
0.41961
0.42941
0.43922
0.4451
0.46078
0.47059
0.48431
0.4902
0.5
0.49412
0.48431
0.46078
0.43529
0.4098
0.38431
0.37451
0.37451
0.37059
0.37059
0.37059
0.36471
0.35882
0.35882
0.35882
0.36471
0.37059
0.37451
0.37451
0.38039
0.37451
0.37451
0.37451
0.37451
0.37451
0.37451
0.38039
0.38039
0.38039
0.37451
0.37451
0.37451
0.37451
0.37451
0.37451
0.38039
0.38039
0.38039
0.38431
0.38431
0.38431
0.39412
0.40392
0.4
0.4
0.39412
0.39412
0.38431
0.37451
0.37059
0.37451
0.37451
0.37451
0.38039
0.37451
0.3549
0.3451
0.42941
0.63529
0.80588
0.81569
0.62549
0.49412
0.42941
0.40392
0.3902
0.38039
0.37059
0.37059
0.37451
0.38039
0.38431
0.38431
0.3902
0.39412
0.39412
0.39412
0.40392
0.41569
0.42941
0.4451
0.46471
0.48039
0.4902
0.49412
0.49412
0.49412
0.48039
0.46471
0.4451
0.41961
0.4
0.38431
0.37451
0.37059
0.36471
0.36471
0.37059
0.37059
0.37059
0.37451
0.37059
0.37059
0.37059
0.37451
0.38039
0.38039
0.38039
0.38039
0.38039
0.38039
0.38039
0.37451
0.37451
0.37451
0.38039
0.38039
0.38431
0.38039
0.37451
0.37451
0.37451
0.37451
0.38039
0.38431
0.38431
0.4
0.40392
0.41569
0.4098
0.40392
0.4
0.4
0.39412
0.38431
0.38431
0.38431
0.38039
0.37451
0.37451
0.37059
0.34902
0.3451
0.4549
0.66078
0.80588
0.7451
0.58431
0.46078
0.40392
0.3902
0.38431
0.38431
0.38039
0.38039
0.38039
0.38039
0.38039
0.38039
0.3902
0.4
0.40392
0.4098
0.41569
0.41961
0.42941
0.4451
0.46078
0.48039
0.48431
0.4902
0.49412
0.4902
0.47451
0.4549
0.43529
0.4098
0.39412
0.38431
0.37451
0.37059
0.35882
0.35882
0.35882
0.35882
0.35882
0.36471
0.37059
0.37451
0.37451
0.37451
0.37451
0.37451
0.37059
0.37451
0.37451
0.37451
0.37451
0.38039
0.37451
0.37059
0.37059
0.37059
0.37451
0.37451
0.37451
0.37451
0.37451
0.37451
0.37451
0.37451
0.38039
0.39412
0.40392
0.41569
0.41569
0.4098
0.40392
0.4
0.3902
0.38039
0.38039
0.38039
0.38431
0.38039
0.38039
0.37059
0.34902
0.3451
0.48039
0.7
0.83137
0.7549
0.59608
0.47059
0.41569
0.39412
0.38039
0.37451
0.37451
0.37451
0.37451
0.38039
0.38039
0.38039
0.38431
0.38431
0.39412
0.40392
0.41961
0.42941
0.43922
0.44902
0.46471
0.47451
0.48431
0.4902
0.49412
0.49412
0.48431
0.46078
0.43922
0.41569
0.39412
0.38039
0.37451
0.37451
0.37451
0.37451
0.37451
0.37059
0.36471
0.36471
0.37059
0.37059
0.37059
0.37451
0.38039
0.38039
0.38039
0.37451
0.37451
0.37451
0.38039
0.38431
0.38431
0.38431
0.38431
0.38431
0.38039
0.37451
0.37451
0.38039
0.38039
0.38039
0.38431
0.3902
0.39412
0.39412
0.4
0.40392
0.41569
0.4098
0.40392
0.4098
0.4
0.38431
0.38039
0.37451
0.38039
0.38039
0.38039
0.38039
0.35882
0.34902
0.4098
0.60588
0.8
0.83529
0.67059
0.53529
0.4549
0.41569
0.39412
0.38431
0.37451
0.37059
0.37451
0.38039
0.38039
0.38431
0.3902
0.39412
0.4
0.40392
0.41569
0.41961
0.42941
0.4451
0.46078
0.47059
0.48039
0.48431
0.4902
0.4902
0.48039
0.47059
0.44902
0.42941
0.4098
0.38431
0.37059
0.35882
0.3549
0.3549
0.3549
0.35882
0.35882
0.36471
0.35882
0.35882
0.35882
0.35882
0.35882
0.36471
0.37059
0.37451
0.38039
0.37059
0.37059
0.37059
0.37451
0.37059
0.37059
0.37451
0.38039
0.38039
0.37451
0.37451
0.37059
0.37059
0.37451
0.38431
0.38431
0.3902
0.39412
0.40392
0.40392
0.4
0.4
0.4
0.4
0.3902
0.3902
0.3902
0.38431
0.38431
0.38039
0.38039
0.36471
0.3549
0.4
0.57059
0.77059
0.82157
0.68039
0.52549
0.43529
0.40392
0.39412
0.3902
0.38431
0.38039
0.38039
0.38039
0.38039
0.38431
0.39412
0.4
0.40392
0.41569
0.42549
0.42941
0.43922
0.44902
0.46471
0.48039
0.4902
0.5
0.50588
0.5
0.4902
0.47451
0.44902
0.42549
0.4098
0.39412
0.38431
0.38039
0.37451
0.37059
0.37059
0.37059
0.37059
0.37451
0.38039
0.38039
0.38431
0.38431
0.38431
0.38431
0.38431
0.38431
0.3902
0.3902
0.3902
0.3902
0.38431
0.38039
0.37451
0.37451
0.37451
0.37451
0.38431
0.39412
0.39412
0.38431
0.38039
0.38431
0.38431
0.39412
0.4098
0.42549
0.42549
0.41961
0.41569
0.41569
0.40392
0.4
0.39412
0.39412
0.3902
0.38431
0.38431
0.38039
0.35882
0.3451
0.37451
0.52941
0.73529
0.82157
0.7098
0.55098
0.43922
0.39412
0.38039
0.37451
0.37451
0.37451
0.38039
0.38431
0.3902
0.39412
0.39412
0.39412
0.4
0.40392
0.41961
0.42941
0.43922
0.44902
0.46078
0.47451
0.48431
0.4902
0.49412
0.5
0.48431
0.47059
0.4549
0.42941
0.40392
0.38431
0.37451
0.37059
0.37059
0.37451
0.37451
0.38039
0.37451
0.37451
0.37451
0.37451
0.38039
0.38431
0.38431
0.3902
0.38431
0.38431
0.38431
0.38431
0.3902
0.3902
0.39412
0.3902
0.3902
0.39412
0.3902
0.38431
0.38039
0.38039
0.38431
0.38431
0.38431
0.3902
0.39412
0.39412
0.40392
0.4098
0.41569
0.4098
0.4098
0.4098
0.4
0.39412
0.38431
0.38431
0.38431
0.38431
0.38431
0.38431
0.37059
0.3549
0.40392
0.5902
0.79608
0.83529
0.6902
0.53922
0.44902
0.41961
0.40392
0.39412
0.38431
0.38039
0.38431
0.39412
0.39412
0.4
0.40392
0.40392
0.40392
0.41569
0.41961
0.42941
0.43922
0.4549
0.47059
0.48431
0.4902
0.49412
0.5
0.50588
0.4902
0.47059
0.4549
0.43529
0.4098
0.3902
0.37451
0.37059
0.37059
0.37059
0.37059
0.37059
0.37451
0.37451
0.38039
0.37451
0.37451
0.37451
0.37451
0.38039
0.38039
0.38431
0.38431
0.38039
0.37451
0.37451
0.37451
0.37451
0.37451
0.37451
0.37451
0.37451
0.37451
0.37451
0.37451
0.37059
0.37451
0.38431
0.3902
0.39412
0.40392
0.41961
0.41569
0.40392
0.40392
0.40392
0.4
0.3902
0.38431
0.38431
0.38431
0.38431
0.38039
0.37059
0.34902
0.33922
0.44902
0.66471
0.81176
0.76078
0.60588
0.47451
0.41569
0.38431
0.37451
0.37059
0.37059
0.35882
0.35882
0.35882
0.37059
0.37059
0.37451
0.38431
0.39412
0.4
0.4098
0.41961
0.42549
0.43922
0.4549
0.47059
0.48039
0.48431
0.4902
0.48431
0.46471
0.4451
0.42549
0.4
0.38039
0.37451
0.37059
0.35882
0.3549
0.3549
0.3549
0.3549
0.3549
0.35882
0.36471
0.37059
0.37059
0.37451
0.37451
0.37059
0.37059
0.37451
0.37451
0.38039
0.38039
0.38039
0.37451
0.37451
0.37059
0.37059
0.37059
0.37451
0.37451
0.37451
0.37451
0.37059
0.37059
0.37451
0.38039
0.39412
0.40392
0.41569
0.40392
0.4
0.39412
0.3902
0.38039
0.38039
0.37451
0.38039
0.38431
0.38431
0.38039
0.36471
0.34902
0.4
0.57451
0.78039
0.81569
0.66078
0.51569
0.43529
0.40392
0.39412
0.38039
0.37451
0.37451
0.37451
0.38039
0.38431
0.38431
0.3902
0.39412
0.39412
0.40392
0.41569
0.42549
0.43922
0.44902
0.46471
0.47451
0.48431
0.4902
0.4902
0.49412
0.48431
0.47059
0.4451
0.42549
0.40392
0.38431
0.37451
0.37059
0.37059
0.37059
0.37059
0.37451
0.37451
0.37059
0.37059
0.37059
0.37451
0.37451
0.38039
0.38431
0.38431
0.38431
0.38039
0.38039
0.38039
0.38039
0.38039
0.38431
0.38431
0.38039
0.37451
0.37451
0.37451
0.37451
0.37451
0.38039
0.38431
0.38431
0.3902
0.4
0.40392
0.41569
0.4098
0.4098
0.4098
0.41569
0.40392
0.39412
0.3902
0.38431
0.38431
0.3902
0.3902
0.38039
0.35882
0.38039
0.51961
0.73529
0.82549
0.72157
0.5549
0.44902
0.41569
0.4
0.3902
0.38039
0.38039
0.38039
0.38039
0.38039
0.38431
0.3902
0.39412
0.40392
0.41569
0.41961
0.42549
0.43922
0.44902
0.46471
0.48039
0.4902
0.50588
0.50588
0.5
0.4902
0.48039
0.46078
0.43529
0.41569
0.4
0.38431
0.37451
0.37451
0.37059
0.37059
0.37059
0.37451
0.37451
0.37451
0.38039
0.38039
0.38431
0.38039
0.38039
0.38431
0.3902
0.39412
0.39412
0.39412
0.3902
0.38431
0.38431
0.38431
0.38431
0.38431
0.3902
0.39412
0.3902
0.3902
0.3902
0.3902
0.3902
0.39412
0.4098
0.42549
0.42941
0.41961
0.41569
0.41569
0.40392
0.39412
0.39412
0.39412
0.39412
0.39412
0.3902
0.38431
0.37059
0.34902
0.38431
0.53922
0.7549
0.84118
0.73137
0.57451
0.47059
0.41961
0.39412
0.38431
0.38431
0.38039
0.38431
0.38431
0.38431
0.38431
0.38431
0.39412
0.4
0.4098
0.41961
0.43529
0.43922
0.44902
0.46078
0.47059
0.48039
0.4902
0.5
0.50588
0.49412
0.48039
0.4549
0.42941
0.4
0.38431
0.38039
0.37451
0.37451
0.37451
0.37451
0.37451
0.37451
0.37451
0.37451
0.37451
0.38039
0.38431
0.3902
0.38431
0.38431
0.3902
0.38431
0.38039
0.38039
0.38039
0.38039
0.37451
0.37451
0.37059
0.37059
0.35882
0.35882
0.36471
0.36471
0.37059
0.37059
0.37059
0.37451
0.37451
0.38431
0.39412
0.4
0.39412
0.39412
0.4
0.39412
0.38039
0.37451
0.38039
0.38039
0.38039
0.38431
0.38431
0.36471
0.3549
0.46471
0.67647
0.82549
0.77059
0.6098
0.48039
0.42549
0.4
0.3902
0.38039
0.37451
0.37451
0.37451
0.38039
0.38431
0.3902
0.39412
0.39412
0.4
0.4
0.41569
0.42549
0.43922
0.4549
0.47059
0.48431
0.49412
0.49412
0.5
0.4902
0.48039
0.46078
0.43922
0.41961
0.4
0.38431
0.37451
0.37059
0.36471
0.37059
0.38039
0.38039
0.38039
0.38039
0.38039
0.38039
0.38039
0.38039
0.38039
0.38039
0.38039
0.38431
0.38039
0.38039
0.37451
0.37451
0.37451
0.37451
0.37451
0.37451
0.37451
0.37059
0.35882
0.35882
0.36471
0.36471
0.37059
0.37451
0.38039
0.3902
0.4
0.40392
0.4
0.39412
0.39412
0.39412
0.38431
0.38039
0.38039
0.38039
0.38039
0.38039
0.37451
0.35882
0.34902
0.42549
0.62549
0.80588
0.82157
0.63529
0.49412
0.41961
0.4
0.3902
0.38431
0.38039
0.37451
0.37451
0.37451
0.37451
0.38039
0.38039
0.38431
0.39412
0.4
0.4098
0.41569
0.41961
0.43529
0.4451
0.46078
0.48039
0.48431
0.49412
0.49412
0.48039
0.46078
0.43529
0.41569
0.39412
0.38431
0.38039
0.37451
0.37451
0.37059
0.37059
0.37059
0.37451
0.37451
0.37451
0.38039
0.38431
0.38039
0.38039
0.38039
0.38039
0.38039
0.38431
0.3902
0.3902
0.38431
0.38431
0.38431
0.38039
0.37451
0.37451
0.37451
0.38039
0.38039
0.38039
0.38039
0.38039
0.38039
0.3902
0.4
0.41569
0.41961
0.41961
0.41961
0.41569
0.4098
0.4
0.39412
0.38431
0.3902
0.39412
0.39412
0.3902
0.37451
0.35882
0.3902
0.5451
0.7549
0.83529
0.72157
0.56078
0.46078
0.41961
0.4
0.38431
0.37451
0.37451
0.37451
0.37451
0.38039
0.38431
0.38039
0.38039
0.38431
0.4
0.40392
0.41569
0.42549
0.43922
0.44902
0.46471
0.48039
0.4902
0.49412
0.49412
0.4902
0.48039
0.4549
0.43529
0.41569
0.39412
0.38039
0.37451
0.37451
0.37451
0.37451
0.38039
0.38039
0.38039
0.37451
0.37451
0.37451
0.38039
0.38039
0.38431
0.3902
0.38431
0.38431
0.38039
0.38039
0.37451
0.37451
0.38039
0.38039
0.38039
0.37451
0.37451
0.37451
0.37451
0.37451
0.37451
0.38431
0.38431
0.3902
0.4
0.4098
0.41569
0.41569
0.41569
0.41569
0.41569
0.4098
0.40392
0.4
0.39412
0.3902
0.3902
0.38431
0.37451
0.35882
0.37059
0.46471
0.68039
0.83137
0.78039
0.62549
0.5
0.43922
0.4098
0.3902
0.37059
0.35882
0.35882
0.3549
0.3549
0.35882
0.37451
0.38039
0.38431
0.39412
0.40392
0.41569
0.41961
0.43529
0.4451
0.46078
0.47451
0.4902
0.49412
0.49412
0.48431
0.47059
0.44902
0.41961
0.4
0.38431
0.37451
0.35882
0.3549
0.3549
0.3549
0.3549
0.3549
0.35882
0.35882
0.35882
0.35882
0.35882
0.36471
0.35882
0.35882
0.37059
0.37059
0.37451
0.37451
0.37059
0.37059
0.37059
0.37059
0.37059
0.37059
0.37059
0.37059
0.37451
0.37451
0.37059
0.37059
0.37059
0.37059
0.37451
0.38431
0.4
0.40392
0.4
0.4
0.4
0.39412
0.3902
0.38431
0.3902
0.3902
0.38431
0.38039
0.37451
0.3549
0.3451
0.3902
0.55098
0.76078
0.82157
0.7
0.53922
0.43529
0.4
0.3902
0.38431
0.38039
0.38039
0.38431
0.38431
0.38431
0.38431
0.38039
0.38431
0.3902
0.4
0.41961
0.42941
0.43922
0.4549
0.46471
0.47451
0.48431
0.49412
0.50588
0.50588
0.49412
0.48039
0.4549
0.41961
0.4
0.38039
0.37059
0.35882
0.35882
0.35882
0.35882
0.3549
0.3549
0.3549
0.3549
0.3549
0.3549
0.35882
0.36471
0.37059
0.37059
0.36471
0.35882
0.35882
0.35882
0.35882
0.35882
0.37059
0.37059
0.37451
0.37451
0.37059
0.37059
0.37451
0.37451
0.38431
0.3902
0.39412
0.39412
0.4
0.40392
0.41569
0.4098
0.4098
0.41569
0.41569
0.4
0.39412
0.39412
0.38431
0.38431
0.38431
0.39412
0.38431
0.37059
0.3902
0.53529
0.75098
0.83137
0.72549
0.56078
0.4549
0.4098
0.39412
0.38431
0.38039
0.37451
0.37451
0.37451
0.37451
0.38431
0.39412
0.4
0.40392
0.4098
0.41569
0.42549
0.43529
0.4451
0.4549
0.47059
0.48039
0.48431
0.4902
0.4902
0.48039
0.46078
0.43922
0.41569
0.39412
0.38431
0.37451
0.36471
0.3549
0.3549
0.3549
0.35882
0.35882
0.35882
0.36471
0.37059
0.37059
0.37059
0.37059
0.37451
0.37451
0.38039
0.38431
0.38431
0.38039
0.38039
0.37451
0.37451
0.38039
0.38039
0.38431
0.38431
0.38039
0.38039
0.37451
0.37059
0.37059
0.37059
0.37451
0.38431
0.4
0.40392
0.40392
0.4
0.39412
0.4
0.39412
0.38431
0.38431
0.38431
0.38431
0.38039
0.38039
0.37059
0.3451
0.33922
0.47059
0.69608
0.83137
0.76667
0.60588
0.47451
0.41569
0.3902
0.38039
0.37451
0.37059
0.37059
0.37059
0.37059
0.37059
0.37059
0.37451
0.38039
0.38431
0.3902
0.4
0.41569
0.41961
0.43529
0.4451
0.46078
0.47059
0.48039
0.48431
0.48431
0.47059
0.4451
0.41961
0.39412
0.37451
0.37059
0.37059
0.36471
0.35882
0.35882
0.35882
0.35882
0.3549
0.3549
0.35882
0.37059
0.37451
0.37451
0.38039
0.37451
0.37451
0.37451
0.37059
0.37059
0.37059
0.37451
0.37451
0.37059
0.36471
0.35882
0.35882
0.3549
0.3549
0.3549
0.35882
0.35882
0.35882
0.35882
0.37059
0.38039
0.3902
0.39412
0.4
0.39412
0.4
0.39412
0.38039
0.37059
0.37059
0.37059
0.37451
0.37451
0.37451
0.35882
0.34902
0.40392
0.5902
0.78039
0.81569
0.6549
0.51569
0.43529
0.4
0.38039
0.37059
0.36471
0.35882
0.35882
0.35882
0.37059
0.37451
0.37451
0.38039
0.38431
0.39412
0.4
0.40392
0.41961
0.43529
0.4549
0.47059
0.48039
0.48431
0.4902
0.4902
0.48431
0.46471
0.4451
0.42549
0.40392
0.38431
0.37451
0.37059
0.35882
0.35882
0.35882
0.36471
0.37059
0.37059
0.37451
0.37059
0.37059
0.37059
0.37059
0.37059
0.37451
0.38039
0.38039
0.38039
0.38039
0.37451
0.37451
0.37451
0.37451
0.37451
0.37451
0.37451
0.37059
0.37059
0.37059
0.36471
0.37059
0.37059
0.38039
0.3902
0.4
0.4
0.4
0.39412
0.39412
0.39412
0.39412
0.38431
0.38431
0.38431
0.38431
0.38039
0.37451
0.35882
0.3451
0.38431
0.5451
0.75098
0.80588
0.68039
0.51961
0.42941
0.4
0.38431
0.38039
0.37451
0.37451
0.37451
0.37451
0.37451
0.37451
0.37451
0.38431
0.39412
0.40392
0.41569
0.41961
0.42941
0.43922
0.44902
0.46078
0.48039
0.4902
0.49412
0.49412
0.48431
0.46471
0.43922
0.41569
0.4
0.3902
0.38039
0.37059
0.37059
0.36471
0.35882
0.35882
0.35882
0.35882
0.35882
0.37059
0.37451
0.37451
0.37451
0.37451
0.37451
0.37451
0.37059
0.37451
0.38039
0.37451
0.37451
0.37451
0.37451
0.37059
0.37059
0.37059
0.37059
0.37059
0.37059
0.37451
0.37451
0.37059
0.37451
0.38039
0.39412
0.40392
0.4098
0.40392
0.4
0.39412
0.38431
0.38039
0.38039
0.38039
0.38039
0.38039
0.38039
0.37451
0.3549
0.3451
0.41569
0.61569
0.79608
0.81569
0.63529
0.4902
0.41961
0.3902
0.37451
0.37059
0.37059
0.37059
0.37059
0.37451
0.38039
0.38039
0.38039
0.38431
0.39412
0.4
0.40392
0.41961
0.43529
0.44902
0.46078
0.47059
0.48039
0.48431
0.4902
0.48431
0.48039
0.46471
0.43922
0.41569
0.3902
0.37451
0.37059
0.35882
0.35882
0.35882
0.35882
0.37059
0.37059
0.36471
0.36471
0.36471
0.37059
0.37451
0.37451
0.37451
0.38039
0.38039
0.38039
0.37451
0.38039
0.37451
0.37451
0.38039
0.38039
0.38039
0.37451
0.37451
0.37059
0.36471
0.37059
0.37451
0.38039
0.38039
0.38431
0.3902
0.39412
0.4
0.40392
0.4
0.4
0.4
0.39412
0.38431
0.38039
0.37451
0.38039
0.38039
0.38039
0.38039
0.36471
0.34902
0.3902
0.56078
0.77059
0.82549
0.7
0.55098
0.46078
0.41961
0.4
0.38039
0.37451
0.37059
0.36471
0.36471
0.37059
0.38039
0.38431
0.38431
0.38431
0.3902
0.39412
0.4
0.41569
0.42549
0.43922
0.4549
0.47451
0.48431
0.48431
0.48039
0.47059
0.46078
0.43922
0.41569
0.4
0.38431
0.37059
0.35882
0.35882
0.3549
0.3549
0.35882
0.36471
0.37059
0.37059
0.37059
0.37059
0.37059
0.37059
0.37059
0.37059
0.37451
0.37451
0.37451
0.37451
0.37059
0.36471
0.36471
0.37059
0.37059
0.36471
0.37059
0.36471
0.35882
0.3549
0.3549
0.3549
0.3549
0.35882
0.37451
0.38039
0.3902
0.4
0.39412
0.3902
0.3902
0.3902
0.38431
0.38431
0.38039
0.38039
0.37451
0.37451
0.37059
0.36471
0.34902
0.33922
0.44902
0.66471
0.81569
0.76667
0.6
0.47451
0.41961
0.39412
0.38431
0.38039
0.38039
0.37451
0.37451
0.37451
0.37451
0.37451
0.38039
0.3902
0.39412
0.4
0.4098
0.41961
0.42941
0.43922
0.44902
0.46471
0.48039
0.48431
0.4902
0.48431
0.47059
0.4451
0.42549
0.40392
0.38431
0.37451
0.36471
0.35882
0.3549
0.34902
0.34902
0.34902
0.34902
0.3549
0.3549
0.35882
0.36471
0.35882
0.35882
0.35882
0.35882
0.35882
0.35882
0.37059
0.37059
0.36471
0.35882
0.35882
0.35882
0.3549
0.35882
0.35882
0.35882
0.35882
0.35882
0.35882
0.35882
0.35882
0.37059
0.37451
0.3902
0.4
0.40392
0.4
0.3902
0.38431
0.38039
0.37451
0.37059
0.37451
0.37451
0.37451
0.37451
0.36471
0.34902
0.33529
0.38431
0.56078
0.76667
0.81176
0.66471
0.5098
0.42549
0.39412
0.38431
0.37451
0.37451
0.37059
0.37059
0.37451
0.37451
0.37451
0.38039
0.38039
0.38431
0.39412
0.40392
0.41569
0.42941
0.43922
0.44902
0.46471
0.47451
0.48039
0.48431
0.4902
0.48039
0.46471
0.43922
0.41569
0.39412
0.38039
0.37451
0.37059
0.37059
0.36471
0.36471
0.37059
0.37059
0.37059
0.37059
0.37059
0.37059
0.37451
0.38039
0.38039
0.37451
0.37451
0.37451
0.37451
0.37451
0.38039
0.38039
0.38039
0.38039
0.37451
0.37451
0.37451
0.37451
0.37451
0.38039
0.38039
0.38039
0.38039
0.38431
0.38431
0.39412
0.40392
0.41569
0.41569
0.40392
0.4
0.39412
0.3902
0.38431
0.38039
0.38039
0.38039
0.38431
0.38431
0.37451
0.34902
0.3549
0.47059
0.6902
0.82157
0.75098
0.59608
0.47451
0.41961
0.39412
0.38039
0.37451
0.37451
0.37451
0.38039
0.38431
0.3902
0.39412
0.39412
0.39412
0.4
0.4098
0.41961
0.43529
0.4451
0.46078
0.47451
0.48431
0.49412
0.49412
0.49412
0.49412
0.48431
0.46471
0.4451
0.41961
0.4
0.38039
0.37451
0.37059
0.37059
0.37059
0.37451
0.37451
0.37451
0.37451
0.38039
0.37451
0.37451
0.38039
0.38039
0.38431
0.38039
0.38039
0.38039
0.38039
0.38039
0.37451
0.38039
0.38039
0.38431
0.38431
0.38039
0.38039
0.37451
0.37451
0.37451
0.38039
0.38039
0.38431
0.39412
0.39412
0.40392
0.4098
0.41569
0.4
0.4
0.4
0.39412
0.38431
0.38039
0.38039
0.38039
0.38039
0.38039
0.37451
0.3549
0.34902
0.41961
0.61569
0.80588
0.83137
0.66078
0.52549
0.4451
0.41569
0.39412
0.38431
0.38039
0.37451
0.37451
0.38039
0.38039
0.38431
0.38431
0.39412
0.4
0.40392
0.4098
0.41961
0.42549
0.43922
0.4549
0.47059
0.48039
0.4902
0.4902
0.48431
0.47451
0.46078
0.43529
0.41569
0.4
0.38039
0.37451
0.37059
0.36471
0.35882
0.35882
0.36471
0.37059
0.37451
0.37451
0.38039
0.38039
0.38039
0.38039
0.38039
0.38039
0.38039
0.38431
0.38431
0.38039
0.37451
0.38039
0.38039
0.38039
0.38039
0.38431
0.38431
0.38431
0.38039
0.38039
0.38431
0.38431
0.38431
0.38431
0.3902
0.4
0.4098
0.41569
0.40392
0.4
0.4
0.39412
0.38431
0.38039
0.38039
0.38039
0.38039
0.37451
0.37059
0.3549
0.33922
0.38039
0.53922
0.7549
0.81176
0.68627
0.52941
0.43529
0.39412
0.38431
0.38039
0.38039
0.38039
0.38039
0.38039
0.38039
0.38039
0.38039
0.3902
0.4
0.4098
0.41569
0.42549
0.42941
0.43922
0.4549
0.46471
0.48039
0.49412
0.5
0.50588
0.49412
0.47451
0.44902
0.42941
0.40392
0.3902
0.38039
0.37451
0.37059
0.37059
0.36471
0.36471
0.36471
0.36471
0.36471
0.37059
0.37059
0.37451
0.37451
0.37451
0.37059
0.37059
0.37059
0.37451
0.38039
0.38039
0.38039
0.37451
0.37059
0.37059
0.37451
0.37451
0.37451
0.37451
0.37451
0.37451
0.37451
0.37451
0.37451
0.38431
0.39412
0.40392
0.4098
0.40392
0.4
0.39412
0.38431
0.38039
0.37059
0.37059
0.37059
0.37451
0.38039
0.37451
0.34902
0.33922
0.40392
0.6
0.78627
0.81569
0.64118
0.5
0.42549
0.4
0.38431
0.37451
0.37059
0.37059
0.37451
0.38039
0.38431
0.3902
0.3902
0.39412
0.39412
0.4
0.4098
0.41961
0.43529
0.4451
0.46078
0.47059
0.48039
0.48431
0.4902
0.4902
0.48039
0.46471
0.4451
0.41961
0.4
0.38431
0.37451
0.37059
0.36471
0.36471
0.37059
0.37451
0.37451
0.37059
0.37059
0.37059
0.37059
0.37451
0.38039
0.38431
0.38431
0.38039
0.38039
0.38039
0.38039
0.38039
0.38039
0.38039
0.38039
0.38039
0.38039
0.38039
0.37451
0.37451
0.37451
0.38039
0.38039
0.38431
0.39412
0.4
0.40392
0.40392
0.4098
0.40392
0.40392
0.40392
0.4
0.39412
0.38431
0.38431
0.38039
0.38039
0.38039
0.37451
0.3549
0.34902
0.43922
0.65098
0.81569
0.82157
0.61961
0.4902
0.42941
0.4
0.38431
0.38039
0.37451
0.37451
0.37451
0.37451
0.38039
0.38039
0.3902
0.4
0.40392
0.4098
0.41569
0.41961
0.42549
0.43922
0.46078
0.47451
0.4902
0.49412
0.49412
0.48431
0.47451
0.4549
0.43529
0.41569
0.39412
0.38431
0.37451
0.37059
0.36471
0.35882
0.35882
0.36471
0.36471
0.36471
0.37059
0.37451
0.37451
0.37059
0.37059
0.37059
0.37059
0.37451
0.37451
0.37451
0.37451
0.37451
0.38039
0.37451
0.37451
0.37451
0.38039
0.38039
0.38039
0.37451
0.37451
0.37451
0.37451
0.37451
0.38431
0.39412
0.4
0.4098
0.41569
0.40392
0.4
0.39412
0.38431
0.37451
0.37451
0.37451
0.37451
0.37059
0.37059
0.35882
0.33922
0.33529
0.4451
0.66078
0.81176
0.7549
0.59608
0.47059
0.41569
0.38431
0.38039
0.37451
0.37451
0.37451
0.37451
0.38039
0.38431
0.38039
0.38039
0.38431
0.39412
0.40392
0.41569
0.42549
0.43529
0.4451
0.46078
0.47059
0.48039
0.4902
0.49412
0.4902
0.47451
0.4549
0.42941
0.40392
0.38431
0.37451
0.37059
0.37059
0.36471
0.36471
0.35882
0.36471
0.36471
0.35882
0.35882
0.35882
0.37059
0.37451
0.37451
0.37451
0.37059
0.37059
0.37059
0.37059
0.37059
0.37059
0.37451
0.37451
0.37451
0.37059
0.37059
0.37059
0.37059
0.37451
0.37451
0.37451
0.37451
0.38039
0.38431
0.39412
0.40392
0.4098
0.41569
0.4098
0.40392
0.4
0.38431
0.37451
0.37451
0.37451
0.38039
0.38039
0.37451
0.35882
0.34902
0.39412
0.56078
0.76667
0.80588
0.66471
0.51569
0.42941
0.40392
0.39412
0.38431
0.37451
0.37451
0.37451
0.38039
0.38431
0.39412
0.39412
0.4
0.4
0.40392
0.40392
0.41961
0.43529
0.4451
0.46078
0.48039
0.4902
0.49412
0.4902
0.4902
0.48039
0.46471
0.4451
0.42549
0.40392
0.38431
0.37451
0.37059
0.37059
0.36471
0.36471
0.36471
0.37059
0.37451
0.37451
0.37451
0.37451
0.37451
0.37451
0.37451
0.38431
0.38431
0.38431
0.38431
0.38431
0.38039
0.38039
0.38039
0.38039
0.38039
0.37451
0.38039
0.37451
0.37451
0.37451
0.37059
0.37451
0.38039
0.39412
0.4
0.4098
0.41569
0.41569
0.40392
0.4
0.39412
0.3902
0.38431
0.38431
0.38039
0.38039
0.37451
0.37059
0.3549
0.33922
0.38039
0.53529
0.75098
0.81569
0.7
0.53922
0.43922
0.40392
0.39412
0.38431
0.38431
0.38431
0.38431
0.38431
0.38039
0.38431
0.3902
0.39412
0.40392
0.41569
0.41961
0.42549
0.43529
0.4451
0.4549
0.46471
0.48039
0.4902
0.5
0.49412
0.4902
0.47451
0.4549
0.42941
0.40392
0.3902
0.38431
0.38039
0.38039
0.37451
0.37059
0.37059
0.37059
0.37451
0.37451
0.38039
0.38039
0.38431
0.38431
0.38431
0.38431
0.38431
0.38431
0.38431
0.38431
0.3902
0.38431
0.38431
0.38431
0.38431
0.38039
0.38039
0.38431
0.38431
0.38431
0.38431
0.39412
0.39412
0.39412
0.4
0.4098
0.41961
0.41961
0.41569
0.41569
0.41569
0.4
0.3902
0.38431
0.38039
0.38431
0.38431
0.3902
0.38039
0.3549
0.34902
0.47059
0.6902
0.83137
0.77647
0.61961
0.5
0.43922
0.4098
0.3902
0.37451
0.37451
0.37059
0.37059
0.37059
0.38039
0.38431
0.38431
0.3902
0.39412
0.4
0.40392
0.41961
0.42941
0.44902
0.46471
0.47451
0.48039
0.48431
0.4902
0.48431
0.48039
0.46078
0.43529
0.41569
0.39412
0.38039
0.37451
0.37059
0.37059
0.37059
0.37059
0.37059
0.37059
0.37059
0.36471
0.36471
0.36471
0.37059
0.37451
0.37451
0.37451
0.37451
0.37451
0.37451
0.37451
0.37451
0.38039
0.38039
0.38431
0.38431
0.38431
0.38039
0.38039
0.38039
0.38039
0.38431
0.39412
0.4
0.4
0.40392
0.41961
0.42941
0.42549
0.42549
0.41961
0.41569
0.40392
0.4
0.39412
0.3902
0.38431
0.38431
0.38039
0.36471
0.3549
0.41569
0.59608
0.7902
0.82549
0.66471
0.51961
0.43529
0.40392
0.4
0.3902
0.38039
0.37451
0.37451
0.37451
0.37451
0.38039
0.38431
0.39412
0.4
0.40392
0.41569
0.41961
0.42549
0.43922
0.4549
0.47059
0.48431
0.4902
0.49412
0.4902
0.48039
0.46078
0.43529
0.41569
0.39412
0.38431
0.37451
0.37059
0.35882
0.35882
0.35882
0.35882
0.36471
0.37059
0.37059
0.37059
0.37059
0.37451
0.37451
0.37059
0.37059
0.37059
0.37451
0.38039
0.38039
0.38039
0.37451
0.37451
0.37059
0.37451
0.37451
0.37059
0.37451
0.38039
0.38039
0.37451
0.37451
0.38039
0.3902
0.39412
0.40392
0.41961
0.41961
0.4098
0.40392
0.4
0.3902
0.38039
0.38039
0.38039
0.38039
0.38039
0.37451
0.36471
0.33529
0.3549
0.48039
0.7
0.81176
0.72549
0.56078
0.44902
0.4
0.38431
0.38039
0.37451
0.37451
0.37451
0.37451
0.37451
0.38039
0.38431
0.3902
0.39412
0.39412
0.40392
0.41961
0.42941
0.4451
0.46078
0.47451
0.48431
0.49412
0.50588
0.5098
0.50588
0.4902
0.47451
0.4451
0.42549
0.40392
0.39412
0.3902
0.38431
0.38039
0.38039
0.38039
0.38039
0.37451
0.37451
0.38039
0.38039
0.38039
0.38431
0.39412
0.3902
0.38431
0.38431
0.38431
0.38431
0.38431
0.38431
0.38431
0.3902
0.3902
0.39412
0.3902
0.3902
0.3902
0.39412
0.39412
0.4
0.40392
0.4098
0.41569
0.41569
0.41961
0.42549
0.42549
0.42549
0.41961
0.4098
0.39412
0.38431
0.38039
0.38039
0.37451
0.37451
0.37059
0.3549
0.34902
0.46078
0.67059
0.81569
0.76078
0.6
0.47451
0.41961
0.40392
0.3902
0.38039
0.37451
0.37451
0.37451
0.38039
0.38431
0.38431
0.38431
0.39412
0.4
0.40392
0.41569
0.42549
0.43529
0.4451
0.46471
0.48039
0.4902
0.49412
0.4902
0.48431
0.47451
0.46078
0.43529
0.41569
0.4
0.38039
0.37451
0.37059
0.35882
0.35882
0.35882
0.35882
0.36471
0.36471
0.37059
0.37059
0.36471
0.35882
0.35882
0.36471
0.37451
0.37451
0.38039
0.38039
0.37451
0.37059
0.37059
0.37059
0.37059
0.37059
0.37451
0.37451
0.37451
0.37059
0.37059
0.37059
0.37059
0.38039
0.38431
0.3902
0.4
0.40392
0.40392
0.4
0.39412
0.38431
0.38431
0.38039
0.38039
0.37451
0.37451
0.37059
0.36471
0.3549
0.33529
0.32941
0.46471
0.69608
0.82549
0.7549
0.59608
0.47451
0.41961
0.39412
0.38039
0.37451
0.37451
0.37451
0.37059
0.37059
0.37059
0.37059
0.37059
0.38039
0.38431
0.39412
0.40392
0.4098
0.41961
0.43529
0.4451
0.46078
0.48039
0.48431
0.4902
0.48431
0.47059
0.44902
0.42941
0.40392
0.3902
0.38039
0.37451
0.37059
0.35882
0.35882
0.3549
0.3549
0.35882
0.35882
0.37059
0.37059
0.37451
0.37451
0.37451
0.37451
0.37059
0.37059
0.37059
0.37451
0.38039
0.38039
0.37451
0.37451
0.37059
0.37059
0.37059
0.37059
0.37059
0.37059
0.37451
0.37451
0.37451
0.37451
0.38039
0.3902
0.40392
0.4098
0.41569
0.41569
0.40392
0.39412
0.38431
0.38039
0.38039
0.38039
0.38431
0.38431
0.38039
0.36471
0.3549
0.4098
0.59608
0.78039
0.81176
0.65098
0.50588
0.42941
0.40392
0.3902
0.38039
0.38039
0.38039
0.38039
0.38431
0.38431
0.39412
0.39412
0.4
0.4
0.40392
0.4098
0.41961
0.43529
0.44902
0.46471
0.47451
0.48431
0.4902
0.4902
0.49412
0.48431
0.47059
0.4451
0.42549
0.40392
0.3902
0.37451
0.37059
0.37059
0.36471
0.36471
0.36471
0.37059
0.37059
0.36471
0.36471
0.36471
0.37059
0.37451
0.38039
0.38039
0.38431
0.38039
0.38039
0.38431
0.38431
0.38039
0.38039
0.38039
0.38039
0.38039
0.38039
0.37451
0.37451
0.37451
0.37451
0.38431
0.3902
0.39412
0.4
0.4098
0.41961
0.41569
0.40392
0.40392
0.40392
0.4
0.39412
0.38431
0.38039
0.38039
0.38431
0.38431
0.37451
0.3549
0.37451
0.49412
0.7098
0.82549
0.74118
0.57451
0.46078
0.41569
0.40392
0.39412
0.38431
0.38039
0.38039
0.38431
0.38431
0.3902
0.39412
0.4
0.4
0.4098
0.41569
0.41961
0.42549
0.43922
0.44902
0.46471
0.48039
0.49412
0.50588
0.5
0.4902
0.48039
0.46078
0.43529
0.41961
0.40392
0.39412
0.38431
0.37451
0.37451
0.37059
0.37059
0.37059
0.37451
0.37451
0.38039
0.38039
0.38039
0.38039
0.38431
0.38431
0.38431
0.38431
0.38431
0.38431
0.38431
0.38431
0.38039
0.38039
0.38039
0.38039
0.38039
0.38431
0.3902
0.3902
0.3902
0.3902
0.39412
0.39412
0.4
0.41569
0.42549
0.42549
0.41961
0.41569
0.4098
0.4
0.3902
0.38431
0.38431
0.3902
0.39412
0.3902
0.38039
0.35882
0.34902
0.41961
0.61569
0.80588
0.83529
0.67059
0.52941
0.4451
0.4098
0.3902
0.38039
0.38039
0.38039
0.38039
0.38431
0.38431
0.38431
0.3902
0.39412
0.39412
0.40392
0.41569
0.42549
0.43529
0.4451
0.46078
0.47059
0.48431
0.4902
0.49412
0.4902
0.48039
0.46078
0.43922
0.41569
0.39412
0.38039
0.37059
0.37059
0.36471
0.35882
0.35882
0.3549
0.3549
0.3549
0.3549
0.35882
0.35882
0.36471
0.37059
0.36471
0.36471
0.36471
0.37059
0.37059
0.36471
0.37059
0.37451
0.37451
0.37059
0.37451
0.37059
0.37059
0.37059
0.37059
0.37451
0.38039
0.38431
0.38431
0.38431
0.38431
0.39412
0.4
0.4
0.4
0.4
0.39412
0.38039
0.37451
0.37059
0.37059
0.37059
0.37059
0.37059
0.3549
0.33529
0.35882
0.50588
0.72549
0.80588
0.7
0.55098
0.44902
0.4098
0.39412
0.38039
0.37451
0.37059
0.37059
0.37059
0.37451
0.37451
0.38039
0.38431
0.3902
0.39412
0.4
0.41569
0.41961
0.43529
0.4451
0.46078
0.48039
0.48431
0.48431
0.48039
0.47059
0.4549
0.43529
0.41961
0.4
0.38039
0.37059
0.35882
0.3549
0.34902
0.34902
0.34902
0.3549
0.3549
0.35882
0.36471
0.35882
0.35882
0.36471
0.37059
0.37451
0.38039
0.38039
0.38039
0.38039
0.37451
0.37451
0.38039
0.37451
0.37451
0.38039
0.38039
0.38039
0.38039
0.37451
0.37451
0.37451
0.38431
0.39412
0.4
0.4098
0.41569
0.4098
0.40392
0.40392
0.4
0.39412
0.38431
0.38431
0.38431
0.38431
0.38039
0.37451
0.35882
0.3451
0.38431
0.5451
0.76078
0.82157
0.6902
0.52941
0.43922
0.4098
0.4
0.39412
0.3902
0.3902
0.3902
0.3902
0.3902
0.39412
0.39412
0.4
0.40392
0.41569
0.41961
0.43529
0.43922
0.44902
0.46078
0.47059
0.48039
0.4902
0.5
0.50588
0.49412
0.48039
0.4549
0.42941
0.4098
0.39412
0.38431
0.38039
0.38039
0.37451
0.37451
0.37451
0.37451
0.37451
0.37451
0.37451
0.38431
0.38431
0.3902
0.3902
0.39412
0.3902
0.3902
0.39412
0.39412
0.39412
0.39412
0.39412
0.3902
0.38431
0.38431
0.38431
0.38431
0.38039
0.38039
0.38431
0.38431
0.38431
0.3902
0.4
0.41569
0.41961
0.41961
0.41961
0.41569
0.40392
0.39412
0.38431
0.38431
0.38039
0.38431
0.38039
0.38039
0.36471
0.3549
0.40392
0.58039
0.78039
0.82157
0.68039
0.52549
0.43922
0.41569
0.4
0.3902
0.38431
0.38039
0.38039
0.38039
0.38431
0.39412
0.4
0.4
0.4
0.40392
0.4098
0.41569
0.42549
0.43922
0.4549
0.47059
0.48431
0.4902
0.49412
0.4902
0.48431
0.47059
0.4549
0.42941
0.41569
0.39412
0.38431
0.37451
0.37451
0.37451
0.37451
0.37451
0.37451
0.38039
0.38039
0.38039
0.38039
0.38431
0.38431
0.3902
0.39412
0.39412
0.39412
0.3902
0.3902
0.38431
0.38431
0.38431
0.38431
0.3902
0.38431
0.38431
0.38039
0.37451
0.37451
0.37451
0.38039
0.38431
0.39412
0.4
0.41569
0.41961
0.41961
0.41569
0.41569
0.41569
0.40392
0.4
0.4
0.39412
0.3902
0.3902
0.3902
0.38039
0.36471
0.35882
0.47451
0.6902
0.83529
0.78627
0.63529
0.5
0.43529
0.40392
0.3902
0.38039
0.38039
0.38039
0.38039
0.37451
0.37451
0.38039
0.38039
0.38431
0.39412
0.40392
0.4098
0.41961
0.42941
0.43922
0.44902
0.46471
0.48039
0.4902
0.49412
0.48431
0.47059
0.4549
0.42941
0.4098
0.4
0.38431
0.38039
0.37451
0.37451
0.37059
0.35882
0.35882
0.36471
0.37059
0.37059
0.37059
0.37059
0.37059
0.36471
0.35882
0.35882
0.35882
0.35882
0.35882
0.36471
0.36471
0.35882
0.35882
0.35882
0.35882
0.35882
0.35882
0.35882
0.36471
0.36471
0.37059
0.37451
0.37451
0.38039
0.39412
0.40392
0.4098
0.41569
0.4098
0.40392
0.39412
0.38039
0.38039
0.38039
0.38039
0.38039
0.38039
0.37451
0.34902
0.35882
0.48039
0.6902
0.81569
0.73529
0.57451
0.46078
0.4098
0.3902
0.37451
0.37059
0.36471
0.36471
0.36471
0.37059
0.37451
0.37451
0.38039
0.38431
0.38431
0.39412
0.40392
0.41569
0.42941
0.4451
0.46078
0.47059
0.47451
0.48039
0.48431
0.48039
0.47059
0.44902
0.43529
0.4098
0.3902
0.37451
0.37059
0.36471
0.36471
0.37059
0.37059
0.37059
0.37059
0.37451
0.37451
0.37059
0.37059
0.37451
0.37451
0.38039
0.38039
0.38431
0.38039
0.38039
0.38039
0.38039
0.38431
0.38431
0.38431
0.38431
0.38431
0.38039
0.38039
0.38039
0.38039
0.38039
0.38431
0.39412
0.4
0.40392
0.41569
0.41569
0.4098
0.40392
0.4
0.39412
0.3902
0.38431
0.39412
0.39412
0.4
0.38431
0.37059
0.3549
0.37451
0.52941
0.7451
0.83137
0.71569
0.5549
0.44902
0.4098
0.39412
0.38431
0.38431
0.38431
0.38431
0.38039
0.38431
0.38431
0.39412
0.4
0.4098
0.41569
0.41961
0.42941
0.43922
0.4451
0.46078
0.47059
0.48431
0.49412
0.50588
0.50588
0.49412
0.48039
0.4549
0.42941
0.4098
0.3902
0.38039
0.38039
0.37451
0.37059
0.36471
0.36471
0.37059
0.37059
0.37059
0.37451
0.38039
0.38039
0.38039
0.38039
0.38039
0.37451
0.37451
0.38039
0.38039
0.38039
0.38039
0.38431
0.38039
0.38039
0.38039
0.38039
0.38039
0.38039
0.38431
0.38431
0.3902
0.39412
0.39412
0.40392
0.41569
0.42549
0.42941
0.42549
0.41569
0.4
0.3902
0.38039
0.37451
0.37451
0.38039
0.38431
0.38039
0.36471
0.34902
0.4
0.58039
0.78039
0.82157
0.67059
0.51961
0.43529
0.40392
0.3902
0.38039
0.37451
0.37059
0.37059
0.37451
0.38039
0.38431
0.3902
0.3902
0.39412
0.39412
0.40392
0.41569
0.42941
0.4451
0.4549
0.46471
0.48039
0.4902
0.49412
0.49412
0.48431
0.47059
0.4549
0.43529
0.41569
0.39412
0.38039
0.37451
0.37451
0.37451
0.37059
0.37059
0.37451
0.37451
0.37451
0.37059
0.37451
0.37451
0.38039
0.38039
0.38039
0.38039
0.38039
0.38039
0.37451
0.37059
0.36471
0.36471
0.37059
0.37451
0.37451
0.37059
0.37059
0.36471
0.36471
0.36471
0.37059
0.38039
0.38431
0.3902
0.39412
0.4
0.4
0.40392
0.40392
0.4
0.39412
0.38431
0.37451
0.37059
0.37059
0.37059
0.37059
0.36471
0.34902
0.33922
0.37059
0.52549
0.7451
0.81569
0.69608
0.53529
0.43922
0.4
0.38039
0.36471
0.35882
0.35882
0.3549
0.3549
0.35882
0.35882
0.36471
0.37059
0.38039
0.38431
0.38431
0.39412
0.4
0.41569
0.43529
0.44902
0.46471
0.48039
0.48431
0.48431
0.47451
0.46078
0.43922
0.41961
0.4
0.38431
0.37451
0.36471
0.35882
0.35882
0.35882
0.35882
0.35882
0.36471
0.37059
0.37059
0.37059
0.37059
0.37059
0.37059
0.37059
0.37451
0.37451
0.37451
0.38039
0.38039
0.37451
0.37451
0.37451
0.37059
0.37059
0.37059
0.37059
0.37059
0.37059
0.36471
0.36471
0.37059
0.37451
0.38431
0.4
0.40392
0.4098
0.4098
0.40392
0.40392
0.39412
0.38431
0.38039
0.38039
0.38431
0.38431
0.3902
0.38039
0.3549
0.34902
0.42549
0.61569
0.7902
0.81176
0.63529
0.49412
0.41961
0.39412
0.38431
0.37451
0.37451
0.37451
0.37451
0.37451
0.38039
0.38039
0.38431
0.38431
0.39412
0.4
0.41569
0.41961
0.43529
0.4451
0.4549
0.47059
0.48039
0.4902
0.49412
0.4902
0.48431
0.46471
0.43922
0.41569
0.39412
0.38431
0.37451
0.37451
0.37451
0.37059
0.37059
0.37059
0.37059
0.37059
0.37059
0.37059
0.37059
0.37451
0.38039
0.38039
0.37451
0.37451
0.37451
0.37451
0.38039
0.38039
0.38039
0.38039
0.38039
0.37451
0.37451
0.37451
0.37451
0.37451
0.38039
0.38039
0.38431
0.39412
0.39412
0.39412
0.40392
0.41569
0.41961
0.41961
0.42549
0.41569
0.4
0.38431
0.38039
0.37451
0.37451
0.38039
0.38039
0.37059
0.34902
0.3451
0.46078
0.67059
0.80588
0.7451
0.5902
0.47059
0.41569
0.39412
0.38039
0.37059
0.36471
0.36471
0.37059
0.37451
0.38039
0.38431
0.3902
0.3902
0.39412
0.4
0.40392
0.41569
0.42941
0.4451
0.46471
0.47451
0.48431
0.4902
0.49412
0.4902
0.48039
0.46471
0.43922
0.41569
0.4
0.38431
0.38039
0.37451
0.37451
0.37451
0.37451
0.37451
0.38039
0.38039
0.38039
0.37451
0.37451
0.37451
0.38039
0.38039
0.38431
0.3902
0.38431
0.38039
0.37451
0.37451
0.37451
0.37451
0.38039
0.38039
0.38039
0.37451
0.37451
0.37059
0.37059
0.37059
0.37451
0.38039
0.38431
0.39412
0.40392
0.4098
0.41569
0.41569
0.41569
0.41569
0.40392
0.39412
0.3902
0.38431
0.38431
0.38039
0.38431
0.38039
0.35882
0.3549
0.46078
0.67059
0.82549
0.83137
0.62549
0.49412
0.42941
0.40392
0.39412
0.38431
0.38039
0.37451
0.37451
0.37451
0.37451
0.38039
0.38431
0.39412
0.4
0.40392
0.41569
0.41961
0.42941
0.43922
0.4549
0.47059
0.48431
0.49412
0.49412
0.4902
0.47059
0.4549
0.43529
0.41569
0.4
0.38431
0.38039
0.37059
0.36471
0.35882
0.36471
0.35882
0.36471
0.37059
0.37059
0.37059
0.37059
0.37059
0.37059
0.37059
0.37059
0.37451
0.37451
0.38039
0.38039
0.38039
0.38039
0.37451
0.37451
0.38039
0.37451
0.37451
0.37451
0.37451
0.37059
0.36471
0.35882
0.36471
0.37059
0.37451
0.38431
0.39412
0.4
0.39412
0.3902
0.38431
0.38039
0.37451
0.37059
0.37059
0.37451
0.37451
0.37451
0.37059
0.34902
0.33922
0.38431
0.5549
0.76078
0.80588
0.67059
0.51961
0.42941
0.39412
0.38039
0.37451
0.37059
0.37059
0.37059
0.37059
0.37059
0.37059
0.37059
0.37059
0.38039
0.3902
0.40392
0.41569
0.41961
0.43529
0.4451
0.4549
0.46471
0.48039
0.48431
0.4902
0.47451
0.46078
0.43529
0.4098
0.3902
0.38039
0.37059
0.36471
0.35882
0.3549
0.3549
0.3549
0.3549
0.3549
0.3549
0.35882
0.36471
0.37059
0.37059
0.37059
0.37059
0.37059
0.37059
0.37059
0.37059
0.37451
0.38039
0.38039
0.37451
0.37059
0.37059
0.37059
0.37451
0.37451
0.38039
0.38039
0.38039
0.38039
0.38431
0.38431
0.39412
0.40392
0.4098
0.40392
0.40392
0.4
0.3902
0.38039
0.37451
0.37451
0.37451
0.37059
0.37059
0.37059
0.34902
0.33922
0.3902
0.57059
0.76667
0.8
0.6451
0.5
0.41961
0.3902
0.38039
0.37451
0.36471
0.35882
0.37059
0.37451
0.37451
0.38039
0.38039
0.38431
0.38431
0.39412
0.40392
0.41569
0.42549
0.43922
0.46078
0.47059
0.48039
0.48431
0.4902
0.48431
0.48039
0.46471
0.4451
0.42549
0.4
0.38431
0.38039
0.37059
0.36471
0.36471
0.37059
0.37451
0.37451
0.37451
0.37059
0.37059
0.37059
0.37451
0.37451
0.37451
0.38039
0.38039
0.38039
0.37451
0.37451
0.37451
0.38039
0.37451
0.37451
0.38039
0.38431
0.37451
0.37451
0.37451
0.37451
0.37451
0.37451
0.38431
0.3902
0.39412
0.40392
0.4098
0.41569
0.4098
0.4098
0.40392
0.4
0.38431
0.38431
0.38039
0.38039
0.38039
0.38039
0.37451
0.35882
0.3549
0.43922
0.65098
0.81569
0.82549
0.62941
0.4902
0.42549
0.40392
0.39412
0.3902
0.38431
0.38431
0.38039
0.38431
0.38431
0.39412
0.4
0.40392
0.4098
0.41569
0.41961
0.42549
0.43529
0.4451
0.46471
0.48039
0.48431
0.49412
0.5
0.49412
0.48431
0.46471
0.4451
0.41961
0.40392
0.39412
0.38431
0.37451
0.37059
0.37059
0.37059
0.37059
0.37059
0.37451
0.38039
0.38039
0.38039
0.38039
0.38039
0.38039
0.38039
0.38431
0.38431
0.38039
0.38039
0.38039
0.38039
0.37451
0.38039
0.38039
0.38039
0.38039
0.38431
0.38039
0.38039
0.37451
0.38039
0.38039
0.38431
0.3902
0.40392
0.4098
0.40392
0.39412
0.39412
0.39412
0.39412
0.38431
0.38431
0.3902
0.38431
0.38431
0.38431
0.37451
0.34902
0.33922
0.4451
0.66078
0.82157
0.82549
0.63529
0.5
0.42941
0.39412
0.38039
0.37059
0.37059
0.37059
0.37059
0.37451
0.37451
0.37451
0.38039
0.38431
0.39412
0.40392
0.41569
0.41961
0.42941
0.43922
0.44902
0.46471
0.47451
0.48431
0.4902
0.48431
0.47059
0.44902
0.42941
0.4
0.38039
0.37059
0.35882
0.3549
0.3549
0.35882
0.35882
0.3549
0.3549
0.3549
0.3549
0.35882
0.35882
0.36471
0.37059
0.37059
0.37059
0.37451
0.37451
0.37059
0.37059
0.37451
0.37451
0.37451
0.37451
0.37059
0.37059
0.37059
0.37059
0.37059
0.37451
0.37451
0.37451
0.38039
0.38431
0.39412
0.4
0.40392
0.40392
0.40392
0.40392
0.4
0.38431
0.38039
0.37451
0.37451
0.37451
0.38039
0.38039
0.35882
0.34902
0.4098
0.59608
0.78039
0.81176
0.6451
0.50588
0.42941
0.40392
0.39412
0.38431
0.38039
0.37451
0.37451
0.37451
0.38039
0.38431
0.39412
0.4
0.40392
0.40392
0.4098
0.41961
0.43529
0.4451
0.46471
0.48039
0.48431
0.4902
0.49412
0.49412
0.48431
0.46471
0.4451
0.42941
0.4098
0.39412
0.38431
0.37451
0.37059
0.36471
0.36471
0.37059
0.37059
0.37059
0.37059
0.37059
0.37059
0.37059
0.37059
0.37059
0.37451
0.38039
0.38039
0.38039
0.38039
0.37451
0.37451
0.37451
0.37451
0.37451
0.38039
0.37451
0.37451
0.37451
0.37451
0.37451
0.37451
0.38431
0.39412
0.4098
0.41569
0.41961
0.4098
0.40392
0.4
0.3902
0.38431
0.38039
0.38039
0.38039
0.38039
0.38039
0.36471
0.3451
0.33922
0.46078
0.67647
0.81569
0.75098
0.5902
0.46078
0.4098
0.39412
0.38431
0.38039
0.38039
0.37451
0.38039
0.38431
0.38431
0.3902
0.39412
0.4
0.40392
0.41569
0.41961
0.43529
0.4451
0.44902
0.46471
0.48039
0.4902
0.49412
0.5
0.49412
0.48039
0.46078
0.43529
0.41569
0.39412
0.38039
0.37451
0.37451
0.37451
0.37059
0.37059
0.37059
0.37059
0.37059
0.37059
0.37059
0.37451
0.37451
0.38039
0.38039
0.38039
0.38039
0.38039
0.38039
0.38039
0.38039
0.38431
0.38431
0.38039
0.38039
0.37451
0.37451
0.38039
0.37451
0.38431
0.39412
0.4
0.4
0.40392
0.41569
0.41961
0.41961
0.41569
0.41569
0.40392
0.39412
0.38431
0.38039
0.38039
0.38039
0.38039
0.37451
0.35882
0.33922
0.38039
0.5549
0.76667
0.82157
0.68627
0.52941
0.43922
0.4098
0.39412
0.38431
0.38039
0.38039
0.38039
0.38039
0.38039
0.3902
0.39412
0.4
0.40392
0.40392
0.41569
0.42549
0.43529
0.44902
0.46471
0.48039
0.4902
0.49412
0.50588
0.50588
0.49412
0.48039
0.46078
0.43529
0.41569
0.4
0.38431
0.37451
0.37451
0.37059
0.37059
0.37059
0.37059
0.37451
0.37451
0.38039
0.38039
0.37451
0.37451
0.37451
0.37451
0.38039
0.38431
0.38431
0.38431
0.38431
0.38039
0.38039
0.37451
0.38039
0.38039
0.38039
0.37451
0.37451
0.37451
0.37451
0.37451
0.38039
0.38431
0.39412
0.40392
0.41569
0.41569
0.40392
0.40392
0.4
0.39412
0.38431
0.38431
0.38431
0.38039
0.38431
0.38039
0.37059
0.34902
0.3451
0.4451
0.6549
0.81569
0.82157
0.62549
0.4902
0.42549
0.39412
0.38039
0.37059
0.37059
0.36471
0.37059
0.37059
0.37059
0.37059
0.37059
0.38039
0.3902
0.4
0.4098
0.41961
0.42941
0.4451
0.44902
0.46471
0.47451
0.48431
0.4902
0.49412
0.47451
0.4549
0.43529
0.4098
0.39412
0.38039
0.37059
0.37059
0.37059
0.37059
0.36471
0.35882
0.35882
0.37059
0.37059
0.37059
0.38039
0.38431
0.38039
0.38039
0.38039
0.38039
0.38039
0.38039
0.38039
0.38431
0.38431
0.38431
0.38431
0.38039
0.37451
0.37451
0.37451
0.38039
0.38039
0.37451
0.38039
0.38431
0.3902
0.4
0.4098
0.41569
0.4098
0.40392
0.4
0.3902
0.38039
0.38039
0.37451
0.38039
0.38039
0.38431
0.37451
0.34902
0.36471
0.48431
0.7
0.81569
0.72549
0.57059
0.46078
0.41569
0.4
0.3902
0.38431
0.38039
0.38431
0.38431
0.3902
0.3902
0.39412
0.4
0.40392
0.40392
0.4098
0.41961
0.42941
0.43922
0.4549
0.47059
0.48431
0.4902
0.49412
0.49412
0.48431
0.47059
0.4549
0.43529
0.4098
0.39412
0.38039
0.37451
0.37059
0.35882
0.35882
0.35882
0.36471
0.37059
0.37059
0.37059
0.37059
0.37059
0.37059
0.37059
0.37451
0.37451
0.38039
0.38039
0.37451
0.37451
0.37059
0.37059
0.37059
0.37451
0.37451
0.37451
0.37451
0.37451
0.37451
0.37451
0.37451
0.37451
0.38431
0.39412
0.40392
0.41569
0.4098
0.4
0.39412
0.39412
0.38431
0.37451
0.37451
0.37451
0.38039
0.37451
0.37059
0.35882
0.33922
0.35882
0.49412
0.71569
0.82157
0.72549
0.56078
0.44902
0.40392
0.3902
0.38039
0.37451
0.37451
0.37451
0.37451
0.37451
0.37451
0.37451
0.38039
0.3902
0.4
0.40392
0.4098
0.41961
0.42941
0.43922
0.46078
0.47059
0.48431
0.4902
0.4902
0.48431
0.47059
0.4451
0.42549
0.4
0.38431
0.37451
0.37059
0.37059
0.36471
0.36471
0.36471
0.35882
0.35882
0.36471
0.37059
0.37451
0.37451
0.37451
0.38039
0.38039
0.38039
0.38039
0.38039
0.38431
0.38431
0.38431
0.38039
0.38039
0.37451
0.37451
0.37451
0.37451
0.37451
0.38039
0.38431
0.38431
0.38431
0.3902
0.4
0.41569
0.41569
0.4098
0.40392
0.40392
0.4
0.3902
0.38039
0.38039
0.37451
0.37451
0.38039
0.37451
0.35882
0.3451
0.38039
0.5451
0.76667
0.82549
0.70588
0.5549
0.46471
0.42549
0.40392
0.39412
0.38431
0.38431
0.38431
0.38431
0.38431
0.39412
0.4
0.40392
0.40392
0.4098
0.41569
0.42549
0.43922
0.4549
0.47059
0.48431
0.4902
0.49412
0.5
0.49412
0.4902
0.48039
0.4549
0.42941
0.4098
0.39412
0.38039
0.37059
0.37059
0.37059
0.37059
0.37059
0.37059
0.37059
0.37059
0.37059
0.37059
0.37059
0.37451
0.37451
0.38039
0.38039
0.38431
0.38039
0.37451
0.37451
0.37451
0.37451
0.38039
0.38039
0.38039
0.38039
0.37451
0.37451
0.37059
0.37059
0.37451
0.38039
0.38431
0.3902
0.4
0.4
0.39412
0.39412
0.39412
0.39412
0.3902
0.38039
0.38039
0.38039
0.38039
0.38039
0.38039
0.37059
0.34902
0.36471
0.48431
0.7
0.82157
0.73529
0.58039
0.46471
0.41569
0.4
0.3902
0.38039
0.37451
0.37451
0.37451
0.37451
0.38039
0.38039
0.38431
0.39412
0.4
0.4098
0.41961
0.42549
0.43529
0.44902
0.46471
0.48039
0.48431
0.49412
0.49412
0.4902
0.47059
0.44902
0.42941
0.41569
0.4
0.38431
0.38039
0.37451
0.37059
0.37059
0.37059
0.37059
0.37059
0.37451
0.37451
0.37451
0.37451
0.37451
0.37451
0.37451
0.37059
0.37451
0.37451
0.38039
0.38039
0.38039
0.38039
0.38039
0.37451
0.37451
0.37451
0.37451
0.38039
0.38039
0.37451
0.37451
0.38039
0.38431
0.39412
0.40392
0.4098
0.41569
0.40392
0.40392
0.39412
0.38431
0.37451
0.37451
0.37451
0.38039
0.38039
0.38039
0.36471
0.3451
0.37451
0.52941
0.74118
0.8
0.68627
0.52941
0.43529
0.4
0.38431
0.37451
0.37451
0.37451
0.37451
0.37451
0.38431
0.3902
0.39412
0.39412
0.4
0.40392
0.41569
0.42549
0.43529
0.44902
0.46078
0.47451
0.48431
0.4902
0.49412
0.49412
0.4902
0.47451
0.4549
0.42941
0.4098
0.39412
0.38039
0.37451
0.37059
0.37059
0.37059
0.37059
0.37451
0.37059
0.37059
0.37059
0.37451
0.37451
0.38039
0.38039
0.38039
0.38039
0.38039
0.38039
0.38039
0.38039
0.37451
0.38039
0.38039
0.38039
0.38039
0.38039
0.38039
0.38039
0.38039
0.38431
0.3902
0.39412
0.40392
0.41569
0.41961
0.41569
0.4098
0.40392
0.40392
0.4
0.39412
0.3902
0.38431
0.38039
0.38039
0.38039
0.37451
0.3549
0.34902
0.43529
0.62941
0.80588
0.82157
0.62549
0.4902
0.41961
0.4
0.3902
0.38039
0.37451
0.37451
0.37451
0.37451
0.37451
0.38431
0.3902
0.39412
0.4
0.40392
0.41569
0.41961
0.43529
0.4451
0.46078
0.47451
0.4902
0.5
0.50588
0.49412
0.48039
0.46078
0.43922
0.41961
0.40392
0.39412
0.38431
0.37451
0.37451
0.37059
0.37059
0.37059
0.37451
0.37451
0.38039
0.38431
0.38431
0.38431
0.38431
0.38431
0.38431
0.3902
0.39412
0.39412
0.39412
0.39412
0.39412
0.38431
0.38431
0.38431
0.38431
0.38431
0.3902
0.38431
0.38431
0.38039
0.38431
0.38431
0.39412
0.40392
0.41961
0.41961
0.41569
0.41569
0.4098
0.4
0.3902
0.38431
0.38431
0.38431
0.38431
0.38431
0.38039
0.3549
0.34902
0.4451
0.66078
0.82549
0.83529
0.64118
0.5098
0.4451
0.4098
0.3902
0.38039
0.37451
0.37451
0.37451
0.38039
0.38039
0.38039
0.38431
0.38431
0.39412
0.4
0.4098
0.41961
0.43922
0.44902
0.46471
0.48039
0.48431
0.4902
0.4902
0.4902
0.48039
0.46471
0.43922
0.41569
0.39412
0.38039
0.37059
0.36471
0.36471
0.36471
0.36471
0.35882
0.35882
0.35882
0.35882
0.35882
0.35882
0.37059
0.37451
0.37451
0.37451
0.37451
0.37451
0.37451
0.37451
0.38039
0.38039
0.38039
0.38039
0.38039
0.38039
0.37451
0.37451
0.37451
0.37451
0.38039
0.38039
0.3902
0.39412
0.4
0.40392
0.4098
0.4
0.4
0.39412
0.3902
0.38431
0.37451
0.37451
0.37451
0.37451
0.37451
0.36471
0.34902
0.35882
0.47451
0.68627
0.81176
0.73529
0.57451
0.46078
0.4098
0.39412
0.38431
0.38039
0.37451
0.37451
0.37059
0.37451
0.37451
0.38039
0.38431
0.39412
0.4
0.40392
0.4098
0.41961
0.43529
0.44902
0.46471
0.48039
0.4902
0.49412
0.4902
0.48431
0.47059
0.4451
0.42549
0.40392
0.3902
0.37451
0.37059
0.36471
0.35882
0.3549
0.3549
0.35882
0.37059
0.37059
0.37059
0.37059
0.37059
0.37451
0.37451
0.37451
0.37451
0.37451
0.38039
0.38039
0.38039
0.37451
0.37451
0.37451
0.37451
0.37451
0.37451
0.37451
0.37451
0.37451
0.37451
0.37451
0.38039
0.38039
0.39412
0.40392
0.41569
0.40392
0.40392
0.4
0.3902
0.38039
0.37451
0.37059
0.37059
0.37059
0.37451
0.38039
0.35882
0.33529
0.35882
0.4902
0.70588
0.80588
0.71569
0.5549
0.4451
0.4
0.38431
0.37451
0.37059
0.37059
0.37059
0.37451
0.38039
0.38431
0.38431
0.38431
0.3902
0.4
0.4098
0.41961
0.43529
0.44902
0.46078
0.46471
0.47451
0.48431
0.4902
0.4902
0.48431
0.48039
0.46078
0.43922
0.41569
0.39412
0.38039
0.37059
0.36471
0.36471
0.35882
0.3549
0.34902
0.3549
0.3549
0.35882
0.37451
0.38039
0.38431
0.39412
0.39412
0.3902
0.38431
0.38039
0.38039
0.38039
0.38039
0.38039
0.38039
0.38039
0.37451
0.37451
0.37451
0.37451
0.37451
0.38039
0.38431
0.3902
0.39412
0.4
0.4098
0.41569
0.41569
0.41569
0.41569
0.4098
0.4
0.3902
0.38431
0.38431
0.38431
0.38431
0.38431
0.37451
0.3549
0.37059
0.50588
0.72157
0.82549
0.72549
0.56471
0.4549
0.4098
0.39412
0.38431
0.38431
0.38039
0.38039
0.38039
0.38039
0.38039
0.3902
0.4
0.40392
0.40392
0.4098
0.41961
0.42549
0.43922
0.44902
0.46471
0.48039
0.4902
0.49412
0.4902
0.48431
0.47059
0.4549
0.43529
0.41569
0.4
0.38431
0.38039
0.37059
0.37059
0.37059
0.37059
0.37059
0.37059
0.37451
0.37451
0.37451
0.37451
0.37451
0.37451
0.37451
0.37451
0.38039
0.38039
0.38039
0.38039
0.38039
0.37451
0.37451
0.37451
0.37451
0.37451
0.38039
0.37451
0.37451
0.37451
0.37451
0.38039
0.38039
0.38431
0.4
0.40392
0.4098
0.4
0.4
0.39412
0.38431
0.38039
0.38039
0.38039
0.38039
0.38039
0.38039
0.37059
0.34902
0.3451
0.48039
0.70588
0.82549
0.7451
0.58431
0.47451
0.41961
0.39412
0.38039
0.37451
0.37059
0.37059
0.37059
0.37059
0.37451
0.37451
0.37451
0.38039
0.38431
0.4
0.4098
0.41961
0.42549
0.43922
0.44902
0.46471
0.47451
0.48039
0.48431
0.48431
0.47059
0.4451
0.42549
0.4
0.38039
0.37059
0.35882
0.3549
0.3549
0.3549
0.3549
0.3549
0.3549
0.3549
0.35882
0.35882
0.36471
0.37059
0.37059
0.36471
0.36471
0.36471
0.37059
0.37059
0.37059
0.37059
0.37059
0.37059
0.37059
0.37059
0.37059
0.36471
0.36471
0.37059
0.37059
0.37451
0.37451
0.37451
0.38039
0.38431
0.39412
0.4
0.4
0.4
0.39412
0.38431
0.38039
0.37451
0.37451
0.37451
0.38039
0.38039
0.37059
0.3549
0.38431
0.53922
0.75098
0.81176
0.69608
0.53529
0.43922
0.4098
0.4
0.38431
0.38039
0.38039
0.38039
0.38039
0.38431
0.38431
0.3902
0.39412
0.4
0.4098
0.41569
0.41961
0.42941
0.4451
0.46078
0.47451
0.4902
0.49412
0.5
0.49412
0.48431
0.47059
0.4451
0.42941
0.4098
0.39412
0.38039
0.37451
0.37059
0.36471
0.35882
0.36471
0.37059
0.37451
0.37451
0.37451
0.38039
0.38039
0.37451
0.37451
0.37451
0.37451
0.37451
0.38039
0.38039
0.37451
0.37059
0.37059
0.37059
0.37059
0.37059
0.37451
0.37451
0.37059
0.37059
0.37059
0.37451
0.37451
0.38039
0.39412
0.4098
0.41961
0.41569
0.4098
0.40392
0.39412
0.38431
0.38039
0.38039
0.38039
0.38039
0.38039
0.38039
0.36471
0.3451
0.38039
0.53529
0.7451
0.81569
0.70588
0.5451
0.4451
0.40392
0.38431
0.38039
0.37451
0.37451
0.38039
0.38039
0.38039
0.38039
0.38039
0.38431
0.39412
0.40392
0.41569
0.41961
0.42941
0.43922
0.44902
0.46471
0.48039
0.4902
0.49412
0.49412
0.48431
0.47451
0.4549
0.42941
0.40392
0.3902
0.38039
0.37451
0.37451
0.37451
0.37451
0.37451
0.37059
0.37451
0.37451
0.38039
0.38039
0.38039
0.38039
0.38039
0.38431
0.38039
0.38039
0.37451
0.37451
0.37451
0.38039
0.38039
0.38039
0.38039
0.37451
0.37451
0.37451
0.38039
0.38039
0.38431
0.39412
0.39412
0.39412
0.4
0.4098
0.41961
0.41961
0.41569
0.41961
0.4098
0.4
0.3902
0.38431
0.38039
0.38431
0.38431
0.38431
0.37451
0.3549
0.3902
0.5451
0.76078
0.83529
0.72157
0.56471
0.46471
0.42549
0.4098
0.39412
0.38039
0.37451
0.37451
0.37451
0.37451
0.38039
0.3902
0.39412
0.4
0.4
0.40392
0.41569
0.42549
0.43922
0.46078
0.47059
0.48431
0.4902
0.49412
0.4902
0.48039
0.46471
0.4451
0.41961
0.4
0.38039
0.37059
0.36471
0.35882
0.3549
0.3549
0.35882
0.35882
0.36471
0.37451
0.38039
0.38431
0.38431
0.37451
0.37451
0.37451
0.38039
0.38431
0.38039
0.38039
0.38039
0.38039
0.37451
0.37059
0.37059
0.37451
0.38039
0.37451
0.37059
0.36471
0.35882
0.35882
0.37059
0.38039
0.3902
0.39412
0.4
0.39412
0.3902
0.3902
0.38431
0.38039
0.37451
0.38039
0.38431
0.37451
0.35882
0.34902
0.32353
0.3
0.33922
0.51569
0.74118
0.8
0.68627
0.53922
0.4549
0.41569
0.4
0.3902
0.38431
0.38039
0.38039
0.38039
0.38039
0.38039
0.38431
0.39412
0.4
0.40392
0.40392
0.41569
0.41961
0.41961
0.42941
0.43922
0.44902
0.46078
0.46471
0.47059
0.46078
0.4451
0.42941
0.4
0.38431
0.37451
0.37059
0.37059
0.36471
0.36471
0.37059
0.37451
0.37059
0.37059
0.36471
0.37059
0.37059
0.37451
0.38039
0.38039
0.38039
0.38039
0.38039
0.38431
0.38431
0.38431
0.38431
0.3902
0.38431
0.38039
0.38039
0.37451
0.37059
0.37059
0.37451
0.38039
0.38039
0.38431
0.38431
0.39412
0.4
0.4098
0.41569
0.4098
0.40392
0.39412
0.3902
0.38431
0.38039
0.38039
0.38039
0.38431
0.38431
0.36471
0.3549
0.4098
0.5902
0.78039
0.81569
0.66471
0.51569
0.42941
0.4
0.3902
0.38039
0.37451
0.37059
0.37059
0.37059
0.37451
0.38431
0.3902
0.39412
0.4
0.4
0.40392
0.4098
0.42549
0.43922
0.4549
0.46471
0.48039
0.48431
0.48431
0.48039
0.47451
0.46078
0.43922
0.41961
0.4
0.38431
0.37451
0.37059
0.36471
0.36471
0.37059
0.37059
0.37451
0.37451
0.37451
0.37451
0.37451
0.38039
0.37451
0.38039
0.38431
0.38431
0.38431
0.38039
0.38039
0.37451
0.37059
0.37059
0.37059
0.37451
0.37451
0.37059
0.37059
0.36471
0.36471
0.36471
0.37059
0.37451
0.38431
0.4
0.4098
0.4098
0.40392
0.4
0.39412
0.38431
0.38431
0.38431
0.38431
0.38039
0.38039
0.38039
0.37059
0.3549
0.34902
0.48431
0.7
0.82549
0.7549
0.6
0.47451
0.41961
0.4
0.3902
0.38039
0.38039
0.38039
0.38039
0.38039
0.38039
0.38431
0.3902
0.39412
0.39412
0.40392
0.41569
0.42549
0.43529
0.43922
0.44902
0.46078
0.47059
0.48431
0.49412
0.4902
0.48039
0.46078
0.43529
0.4098
0.39412
0.38431
0.38431
0.38039
0.38039
0.38039
0.37451
0.37451
0.37451
0.38039
0.38039
0.38039
0.38039
0.38431
0.38431
0.38431
0.38431
0.38431
0.38431
0.38431
0.3902
0.39412
0.3902
0.38431
0.38039
0.37451
0.37451
0.37451
0.37451
0.38039
0.38039
0.38039
0.38039
0.38431
0.38431
0.4
0.40392
0.40392
0.4
0.4
0.4
0.3902
0.38039
0.38039
0.38039
0.38039
0.38039
0.38431
0.37059
0.34902
0.37451
0.52941
0.7451
0.82157
0.7098
0.56078
0.46078
0.41569
0.3902
0.37451
0.35882
0.34902
0.34902
0.34902
0.35882
0.36471
0.37059
0.37451
0.38039
0.38431
0.3902
0.4
0.41569
0.43529
0.4451
0.46078
0.47059
0.48039
0.48431
0.48431
0.48039
0.46471
0.4451
0.42549
0.4
0.38039
0.37059
0.35882
0.3549
0.3549
0.3549
0.3549
0.35882
0.36471
0.36471
0.35882
0.35882
0.36471
0.37059
0.37059
0.37059
0.37451
0.37451
0.37451
0.37451
0.37059
0.37059
0.37059
0.37451
0.37451
0.38039
0.38039
0.37451
0.37059
0.37059
0.37059
0.37451
0.38039
0.3902
0.4
0.40392
0.40392
0.39412
0.3902
0.38431
0.37451
0.37451
0.37451
0.37451
0.37059
0.37059
0.37059
0.34902
0.33529
0.3549
0.48431
0.70588
0.82549
0.7451
0.58431
0.46078
0.41569
0.39412
0.38039
0.37451
0.37059
0.37059
0.37059
0.37059
0.37059
0.37451
0.37451
0.38431
0.39412
0.40392
0.41569
0.41961
0.42941
0.43922
0.44902
0.46471
0.47451
0.48431
0.4902
0.48039
0.46471
0.4451
0.41961
0.4
0.38039
0.37451
0.37059
0.37059
0.37059
0.36471
0.35882
0.3549
0.3549
0.35882
0.35882
0.36471
0.37059
0.37451
0.37451
0.37451
0.37451
0.37451
0.37059
0.37451
0.37451
0.37451
0.37451
0.37451
0.37059
0.36471
0.35882
0.35882
0.37059
0.37451
0.37451
0.37451
0.38039
0.38039
0.3902
0.4
0.41569
0.41569
0.4
0.4
0.4
0.38431
0.37451
0.37059
0.37059
0.37451
0.37451
0.38039
0.37451
0.34902
0.33922
0.41961
0.62549
0.79608
0.81176
0.61961
0.48431
0.41961
0.39412
0.38431
0.37451
0.36471
0.37059
0.37059
0.37451
0.38039
0.38039
0.38039
0.38431
0.3902
0.39412
0.4
0.41569
0.41961
0.43529
0.4549
0.46471
0.47059
0.47451
0.48039
0.48039
0.47059
0.44902
0.43529
0.4098
0.38431
0.37451
0.35882
0.34902
0.33922
0.33922
0.34902
0.34902
0.34902
0.34902
0.34902
0.3451
0.3451
0.3451
0.3451
0.3451
0.34902
0.34902
0.3549
0.3451
0.33922
0.33922
0.33529
0.33922
0.33529
0.33529
0.33529
0.32941
0.32353
0.31961
0.31961
0.31961
0.32353
0.32941
0.33922
0.34902
0.34902
0.3451
0.33529
0.33529
0.32941
0.32353
0.31373
0.3098
0.3098
0.3098
0.30392
0.29412
0.28431
0.26471
0.25882
0.39412
0.61961
0.7451
0.66078
0.49412
0.37059
0.31373
0.29412
0.2902
0.28431
0.27843
0.27451
0.26863
0.26863
0.27451
0.27451
0.27843
0.2902
0.29412
0.3
0.30392
0.3098
0.31961
0.32941
0.33922
0.3549
0.37059
0.37451
0.37451
0.37059
0.34902
0.32353
0.3
0.27843
0.26471
0.24902
0.2451
0.23922
0.23333
0.22941
0.22941
0.23333
0.23333
0.23333
0.23922
0.2451
0.2451
0.23922
0.23922
0.23922
0.23922
0.23922
0.23922
0.2451
0.2451
0.2451
0.24902
0.2451
0.23922
0.23333
0.23333
0.23333
0.23333
0.23333
0.2451
0.24902
0.2451
0.2451
0.25882
0.26863
0.26863
0.26863
0.26863
0.26863
0.26471
0.2549
0.24902
0.24902
0.24902
0.2549
0.26471
0.26471
0.2451
0.23333
0.28431
0.46078
0.67059
0.72157
0.58431
0.43922
0.34902
0.3098
0.2902
0.27843
0.27451
0.26863
0.27451
0.27843
0.27843
0.28431
0.2902
0.2902
0.2902
0.29412
0.30392
0.31373
0.32941
0.3451
0.36471
0.37451
0.38431
0.39412
0.4
0.4
0.39412
0.38431
0.37059
0.3451
0.32353
0.3098
0.3
0.29412
0.29412
0.29412
0.29412
0.3
0.30392
0.3098
0.3098
0.30392
0.30392
0.3098
0.3098
0.31373
0.31961
0.31961
0.31373
0.31373
0.31373
0.3098
0.3098
0.31373
0.31961
0.32353
0.32353
0.31961
0.31961
0.31373
0.31373
0.31961
0.32353
0.33529
0.33922
0.34902
0.3549
0.3549
0.34902
0.34902
0.3451
0.33922
0.33529
0.33529
0.33529
0.33529
0.32941
0.32941
0.31373
0.30392
0.32941
0.4902
0.7098
0.78627
0.67059
0.5098
0.4098
0.37451
0.35882
0.3549
0.34902
0.34902
0.34902
0.34902
0.3549
0.3549
0.35882
0.37059
0.37451
0.38039
0.3902
0.4
0.41569
0.42549
0.43529
0.4451
0.46078
0.47059
0.48039
0.48039
0.47059
0.44902
0.42941
0.4098
0.3902
0.37451
0.37059
0.37059
0.37059
0.36471
0.35882
0.35882
0.35882
0.35882
0.35882
0.36471
0.37059
0.37451
0.37451
0.38039
0.38039
0.37451
0.37451
0.37451
0.37451
0.37451
0.37451
0.37059
0.36471
0.35882
0.35882
0.35882
0.35882
0.35882
0.36471
0.37059
0.37451
0.37451
0.38039
0.3902
0.4
0.40392
0.41569
0.41569
0.40392
0.4
0.3902
0.38039
0.38039
0.38039
0.38039
0.38431
0.37451
0.3549
0.3451
0.42549
0.62549
0.79608
0.81176
0.62549
0.4902
0.41961
0.4
0.3902
0.38039
0.37451
0.37451
0.37451
0.37451
0.38431
0.3902
0.39412
0.4
0.40392
0.41569
0.41961
0.42941
0.43922
0.46078
0.47451
0.4902
0.50588
0.5098
0.5098
0.50588
0.49412
0.48039
0.46078
0.43922
0.42549
0.40392
0.39412
0.38431
0.38431
0.38431
0.38431
0.3902
0.39412
0.39412
0.3902
0.38431
0.3902
0.39412
0.39412
0.39412
0.4
0.4
0.4
0.4
0.4
0.4
0.4
0.4
0.40392
0.4098
0.41569
0.4098
0.4098
0.4098
0.4098
0.4098
0.41961
0.42549
0.43529
0.44902
0.46078
0.4549
0.44902
0.44902
0.4451
0.43529
0.42941
0.43529
0.42941
0.42549
0.42549
0.42549
0.4098
0.3902
0.38431
0.52549
0.75098
0.87647
0.8
0.64118
0.51961
0.46471
0.4451
0.43529
0.42941
0.42941
0.42941
0.43529
0.43529
0.43922
0.43922
0.4451
0.44902
0.46078
0.47059
0.48039
0.48431
0.49412
0.5098
0.52549
0.53529
0.5451
0.5549
0.56078
0.55098
0.53529
0.51569
0.4902
0.46471
0.44902
0.43922
0.43529
0.42941
0.42941
0.42549
0.42549
0.41961
0.41961
0.42549
0.43529
0.43529
0.43922
0.43922
0.4451
0.43922
0.43922
0.43922
0.4451
0.4451
0.44902
0.44902
0.4451
0.4451
0.4451
0.43922
0.43922
0.43922
0.43922
0.43922
0.43922
0.43922
0.4451
0.4451
0.4451
0.4549
0.46078
0.46471
0.47059
0.47059
0.46471
0.4549
0.4451
0.43922
0.43922
0.43922
0.4451
0.4451
0.43529
0.41569
0.4098
0.53529
0.75098
0.88039
0.81176
0.6549
0.53922
0.48431
0.46078
0.4451
0.43529
0.42549
0.42549
0.42941
0.43922
0.4451
0.44902
0.44902
0.44902
0.44902
0.46078
0.47059
0.48039
0.4902
0.5098
0.52941
0.5451
0.55098
0.5549
0.56078
0.5549
0.5451
0.52941
0.5098
0.4902
0.46471
0.4451
0.43922
0.42941
0.42549
0.42549
0.42549
0.42549
0.42549
0.42549
0.42549
0.42549
0.42549
0.42549
0.43529
0.43529
0.43922
0.43922
0.43922
0.43922
0.43529
0.43529
0.43922
0.43922
0.43922
0.4451
0.4451
0.4451
0.43922
0.43922
0.43922
0.43922
0.4451
0.4549
0.46471
0.47059
0.47451
0.48039
0.47451
0.47059
0.46471
0.46471
0.44902
0.4451
0.4451
0.44902
0.4451
0.43922
0.42941
0.41569
0.40392
0.48431
0.6902
0.86667
0.88627
0.7
0.5549
0.48039
0.46078
0.44902
0.4451
0.43922
0.43922
0.43922
0.43922
0.43922
0.43922
0.43922
0.44902
0.4549
0.46471
0.47059
0.48039
0.4902
0.5
0.51569
0.52941
0.5451
0.55098
0.5549
0.5549
0.53922
0.51961
0.49412
0.47451
0.4549
0.4451
0.43922
0.43529
0.42941
0.41961
0.41961
0.41961
0.41961
0.41961
0.42549
0.42549
0.42941
0.42941
0.42941
0.42941
0.42941
0.42941
0.42941
0.43529
0.43529
0.43529
0.43922
0.43922
0.43529
0.43529
0.43529
0.43529
0.43529
0.43529
0.43922
0.43922
0.43529
0.43922
0.43922
0.44902
0.46078
0.46471
0.47059
0.47059
0.46471
0.4549
0.43922
0.43529
0.43529
0.43529
0.43529
0.43529
0.42941
0.41569
0.39412
0.40392
0.52941
0.7451
0.86667
0.78039
0.61961
0.5
0.4549
0.43529
0.42549
0.41961
0.41961
0.41961
0.42549
0.42941
0.43529
0.43529
0.43529
0.43922
0.4451
0.44902
0.46078
0.47059
0.48431
0.5
0.5098
0.52549
0.52941
0.53529
0.53529
0.52941
0.51569
0.49412
0.48039
0.46078
0.43529
0.41961
0.41569
0.4098
0.40392
0.40392
0.4098
0.41569
0.4098
0.40392
0.4098
0.41569
0.41569
0.41961
0.42549
0.42549
0.42549
0.42549
0.42549
0.41961
0.41961
0.41961
0.42549
0.42549
0.42549
0.42549
0.41961
0.41961
0.41569
0.41569
0.41569
0.41961
0.41961
0.42549
0.42941
0.43529
0.43529
0.43922
0.4451
0.43922
0.43922
0.43922
0.42941
0.41569
0.40392
0.40392
0.4
0.4
0.4
0.40392
0.38039
0.37451
0.46471
0.67647
0.84118
0.8451
0.66078
0.53529
0.47059
0.43922
0.41961
0.4098
0.4
0.39412
0.39412
0.4
0.40392
0.41569
0.41961
0.41961
0.42549
0.42941
0.43922
0.4451
0.46078
0.47059
0.48431
0.50588
0.5098
0.51961
0.52549
0.51569
0.50588
0.48431
0.46471
0.4451
0.42941
0.41569
0.4
0.39412
0.3902
0.38431
0.38431
0.38431
0.3902
0.39412
0.38431
0.38431
0.38039
0.38039
0.38431
0.38431
0.3902
0.39412
0.4
0.4
0.4
0.4
0.4
0.4
0.4
0.4
0.40392
0.40392
0.40392
0.4
0.4
0.4
0.4
0.40392
0.41569
0.41961
0.42549
0.43529
0.43922
0.43529
0.42549
0.41961
0.41569
0.40392
0.4
0.39412
0.39412
0.3902
0.38431
0.38039
0.37059
0.35882
0.41961
0.60588
0.8
0.84118
0.67059
0.52549
0.4451
0.41961
0.41569
0.4098
0.40392
0.40392
0.40392
0.40392
0.40392
0.40392
0.40392
0.41569
0.41961
0.42549
0.42941
0.43922
0.44902
0.46078
0.47059
0.48431
0.50588
0.51569
0.51961
0.51569
0.50588
0.48431
0.46078
0.4451
0.42549
0.41569
0.40392
0.4
0.39412
0.39412
0.3902
0.3902
0.3902
0.3902
0.3902
0.39412
0.4
0.4
0.39412
0.39412
0.3902
0.3902
0.3902
0.3902
0.3902
0.39412
0.3902
0.3902
0.38431
0.38431
0.38431
0.38431
0.3902
0.39412
0.39412
0.39412
0.39412
0.39412
0.40392
0.41569
0.41961
0.42941
0.43529
0.43922
0.43529
0.42549
0.41961
0.40392
0.39412
0.39412
0.39412
0.39412
0.39412
0.38431
0.37059
0.3549
0.4
0.58039
0.78627
0.82549
0.67647
0.52549
0.43922
0.4098
0.39412
0.38431
0.38039
0.38039
0.38039
0.38431
0.39412
0.39412
0.39412
0.4
0.4
0.40392
0.41569
0.42941
0.43922
0.4549
0.46471
0.48039
0.4902
0.49412
0.49412
0.49412
0.4902
0.47451
0.4549
0.43529
0.4098
0.39412
0.38431
0.38039
0.38039
0.38039
0.38039
0.38039
0.37451
0.37451
0.37059
0.37059
0.37451
0.37451
0.38039
0.38431
0.38431
0.38431
0.38431
0.38039
0.38039
0.38039
0.38431
0.38431
0.38431
0.38431
0.38039
0.38039
0.38039
0.38039
0.38039
0.38431
0.3902
0.39412
0.39412
0.4
0.40392
0.4098
0.41961
0.42549
0.41961
0.41961
0.41569
0.4
0.38431
0.38039
0.38039
0.38039
0.38039
0.38039
0.37059
0.34902
0.35882
0.48039
0.7
0.82549
0.74118
0.58431
0.47451
0.41961
0.4
0.3902
0.38431
0.38039
0.37451
0.37451
0.38039
0.38431
0.3902
0.39412
0.4
0.40392
0.41569
0.41961
0.42941
0.43922
0.4549
0.47059
0.48431
0.4902
0.49412
0.5
0.49412
0.48039
0.46078
0.4451
0.42549
0.40392
0.39412
0.38431
0.38039
0.38039
0.38039
0.38039
0.38039
0.38039
0.38039
0.38039
0.38039
0.38039
0.38039
0.38039
0.38431
0.38431
0.38431
0.38431
0.38431
0.38039
0.37451
0.37451
0.37451
0.37451
0.38039
0.38039
0.38039
0.37451
0.37451
0.38039
0.38039
0.38039
0.38431
0.3902
0.39412
0.39412
0.40392
0.41569
0.40392
0.40392
0.40392
0.40392
0.39412
0.38431
0.38431
0.38039
0.37451
0.37451
0.37451
0.36471
0.34902
0.3451
0.46078
0.67059
0.81176
0.7549
0.6
0.47451
0.41569
0.39412
0.38039
0.37059
0.36471
0.35882
0.35882
0.35882
0.37059
0.37451
0.38431
0.38431
0.39412
0.4
0.40392
0.41569
0.42941
0.4451
0.46471
0.48039
0.4902
0.49412
0.4902
0.48431
0.47059
0.44902
0.42941
0.4098
0.3902
0.38039
0.37059
0.35882
0.3549
0.34902
0.34902
0.34902
0.3549
0.35882
0.37059
0.36471
0.36471
0.36471
0.37059
0.37059
0.37059
0.37451
0.37451
0.37451
0.38039
0.37451
0.37059
0.36471
0.37059
0.37059
0.37451
0.37451
0.38039
0.38039
0.38039
0.37451
0.37451
0.38039
0.3902
0.39412
0.40392
0.41569
0.41961
0.41961
0.41569
0.40392
0.39412
0.38431
0.38431
0.38431
0.38431
0.38431
0.38431
0.38039
0.3549
0.3451
0.39412
0.56078
0.76078
0.8
0.66471
0.51569
0.42549
0.39412
0.38039
0.37451
0.37059
0.37059
0.37451
0.38039
0.37451
0.37451
0.38039
0.38431
0.39412
0.4098
0.42549
0.43529
0.43922
0.4451
0.46078
0.47451
0.4902
0.49412
0.50588
0.50588
0.4902
0.48039
0.4549
0.42549
0.4
0.38431
0.38039
0.37059
0.37059
0.37059
0.35882
0.35882
0.3549
0.35882
0.35882
0.36471
0.37059
0.37451
0.38039
0.37451
0.37451
0.37059
0.37451
0.37451
0.37451
0.38039
0.38039
0.38039
0.37451
0.37451
0.37059
0.37059
0.36471
0.37059
0.37059
0.37451
0.37451
0.37451
0.38039
0.38039
0.38431
0.4
0.4098
0.41569
0.41569
0.41569
0.40392
0.39412
0.38039
0.37451
0.37451
0.37451
0.37451
0.38039
0.37059
0.3451
0.33529
0.4451
0.6549
0.80588
0.7549
0.6
0.47059
0.41569
0.39412
0.38039
0.37059
0.37059
0.37059
0.37451
0.38039
0.38431
0.38431
0.38431
0.38431
0.3902
0.4
0.4098
0.41961
0.43529
0.4549
0.46471
0.47451
0.48039
0.48431
0.4902
0.4902
0.48431
0.46471
0.43922
0.41569
0.39412
0.38039
0.37059
0.37059
0.37059
0.37059
0.37059
0.37059
0.37059
0.37059
0.37451
0.37451
0.37451
0.38039
0.38431
0.38431
0.38431
0.38039
0.37451
0.37451
0.37451
0.37451
0.37451
0.37451
0.38039
0.38431
0.38039
0.38039
0.38039
0.38039
0.37451
0.37451
0.38039
0.38431
0.3902
0.39412
0.4
0.4
0.40392
0.4098
0.4098
0.41569
0.4098
0.40392
0.39412
0.38039
0.37451
0.37451
0.37451
0.38039
0.37451
0.34902
0.33922
0.4098
0.60588
0.7902
0.81176
0.64118
0.5
0.42941
0.4
0.38431
0.37451
0.36471
0.35882
0.35882
0.37059
0.37451
0.37451
0.38039
0.38039
0.38431
0.39412
0.4
0.4098
0.42549
0.43922
0.4549
0.46471
0.48039
0.4902
0.4902
0.48431
0.47451
0.46078
0.43922
0.41961
0.4
0.38039
0.37059
0.36471
0.35882
0.35882
0.35882
0.35882
0.37059
0.37059
0.36471
0.35882
0.36471
0.37059
0.37059
0.37451
0.37451
0.38039
0.38039
0.38039
0.37451
0.37451
0.37059
0.37059
0.37451
0.38039
0.37451
0.37451
0.37059
0.36471
0.36471
0.37059
0.37059
0.37059
0.38039
0.38431
0.3902
0.4
0.40392
0.4098
0.40392
0.40392
0.40392
0.4
0.3902
0.38039
0.37451
0.37451
0.37451
0.37451
0.37059
0.34902
0.3451
0.44902
0.66078
0.80588
0.7549
0.6
0.47059
0.41569
0.39412
0.38039
0.37451
0.37059
0.37059
0.36471
0.37059
0.37059
0.38039
0.38431
0.39412
0.4
0.4098
0.41569
0.42549
0.43529
0.4451
0.46078
0.48039
0.4902
0.49412
0.50588
0.49412
0.48039
0.46078
0.43922
0.41961
0.40392
0.38431
0.37451
0.37059
0.35882
0.3549
0.3549
0.35882
0.35882
0.37059
0.37451
0.37451
0.37451
0.37451
0.37451
0.37451
0.37059
0.37059
0.37451
0.37451
0.37451
0.38039
0.37451
0.37451
0.37451
0.37451
0.37451
0.38039
0.38039
0.38039
0.38039
0.37451
0.37451
0.38039
0.38431
0.3902
0.4
0.41569
0.41961
0.41569
0.40392
0.4
0.39412
0.38431
0.38039
0.38039
0.38039
0.38039
0.37451
0.37059
0.34902
0.33529
0.38431
0.57451
0.77647
0.81569
0.6549
0.50588
0.41961
0.3902
0.38039
0.37451
0.37451
0.37451
0.37451
0.37451
0.38039
0.38039
0.38039
0.38431
0.39412
0.40392
0.41569
0.42549
0.43529
0.4451
0.46078
0.47451
0.48431
0.49412
0.5
0.50588
0.4902
0.47451
0.44902
0.42549
0.4
0.38431
0.38039
0.37451
0.37059
0.37059
0.37059
0.37059
0.36471
0.36471
0.36471
0.37059
0.37451
0.37451
0.38039
0.38431
0.38039
0.37451
0.37451
0.37451
0.37451
0.37451
0.38039
0.38039
0.37451
0.37451
0.38039
0.37451
0.37451
0.37451
0.37451
0.38039
0.38039
0.38431
0.38431
0.38431
0.39412
0.40392
0.41569
0.41569
0.41569
0.41569
0.40392
0.38431
0.38039
0.37451
0.37451
0.37451
0.37451
0.37451
0.35882
0.33529
0.36471
0.51961
0.73529
0.81176
0.69608
0.53529
0.43529
0.39412
0.38039
0.37059
0.35882
0.3549
0.3549
0.35882
0.37059
0.38039
0.38431
0.3902
0.39412
0.39412
0.39412
0.40392
0.41961
0.43529
0.4549
0.47059
0.48039
0.48039
0.48039
0.48039
0.47059
0.46078
0.43922
0.41569
0.3902
0.36471
0.34902
0.33922
0.33529
0.33922
0.34902
0.34902
0.34902
0.34902
0.3549
0.3549
0.3549
0.3549
0.35882
0.37059
0.37451
0.38039
0.38431
0.38039
0.37451
0.37451
0.38039
0.38039
0.38039
0.37451
0.38039
0.38039
0.37451
0.37451
0.37451
0.37059
0.37059
0.37451
0.38039
0.38039
0.38431
0.39412
0.4
0.4
0.39412
0.39412
0.38431
0.37451
0.37059
0.36471
0.35882
0.3549
0.35882
0.35882
0.3549
0.33529
0.32941
0.42941
0.64118
0.80588
0.81569
0.61961
0.48431
0.41961
0.39412
0.38039
0.37059
0.35882
0.35882
0.35882
0.35882
0.36471
0.37059
0.37451
0.38039
0.38431
0.39412
0.4
0.40392
0.41961
0.42941
0.4451
0.46078
0.47059
0.48039
0.48039
0.47059
0.4549
0.43529
0.4098
0.3902
0.37451
0.35882
0.3549
0.34902
0.3451
0.3451
0.34902
0.34902
0.3549
0.35882
0.37059
0.37059
0.37059
0.37059
0.36471
0.36471
0.37059
0.37059
0.37451
0.37451
0.37451
0.37451
0.37059
0.37059
0.37059
0.37059
0.36471
0.37059
0.37059
0.37059
0.36471
0.36471
0.36471
0.37059
0.37451
0.38039
0.39412
0.40392
0.4098
0.40392
0.40392
0.4
0.38431
0.38039
0.38039
0.38039
0.38039
0.38039
0.38039
0.37059
0.34902
0.33922
0.41569
0.6098
0.78627
0.80588
0.62941
0.4902
0.41961
0.39412
0.38431
0.37451
0.37059
0.37059
0.37451
0.38039
0.37451
0.37451
0.38039
0.38431
0.39412
0.40392
0.41569
0.42549
0.43529
0.44902
0.46078
0.47059
0.48039
0.4902
0.49412
0.49412
0.48431
0.46471
0.43922
0.41569
0.39412
0.38039
0.37059
0.37059
0.37059
0.37059
0.36471
0.35882
0.3549
0.3549
0.3549
0.35882
0.37059
0.37059
0.37451
0.37451
0.37451
0.37451
0.37451
0.37451
0.37451
0.38039
0.38039
0.37451
0.37451
0.37451
0.37059
0.37059
0.37059
0.37059
0.37059
0.37451
0.38039
0.38431
0.38431
0.38431
0.4
0.40392
0.41569
0.41569
0.41569
0.41569
0.4
0.39412
0.38431
0.38039
0.38039
0.38039
0.38039
0.37451
0.35882
0.34902
0.43922
0.6451
0.8
0.81176
0.6098
0.47451
0.41961
0.4
0.38431
0.38039
0.37451
0.37451
0.37451
0.38039
0.38431
0.39412
0.4
0.40392
0.40392
0.41569
0.41961
0.42941
0.43922
0.4549
0.47451
0.48431
0.49412
0.5
0.49412
0.4902
0.48039
0.46471
0.4451
0.41961
0.4
0.3902
0.38039
0.37059
0.37059
0.37059
0.37059
0.37451
0.38039
0.38431
0.38431
0.38039
0.38039
0.38431
0.38431
0.38431
0.3902
0.39412
0.39412
0.39412
0.3902
0.3902
0.38431
0.38431
0.38431
0.38431
0.38431
0.38431
0.38431
0.38431
0.38431
0.38431
0.3902
0.4
0.40392
0.41569
0.42549
0.42941
0.42941
0.42549
0.42549
0.41961
0.4098
0.4
0.39412
0.39412
0.3902
0.38431
0.38431
0.37451
0.3549
0.38039
0.51569
0.73137
0.83529
0.7451
0.58039
0.47059
0.41961
0.40392
0.39412
0.3902
0.38431
0.38431
0.38431
0.38431
0.38431
0.39412
0.4
0.4098
0.41569
0.41961
0.42549
0.43529
0.4451
0.46078
0.47451
0.4902
0.50588
0.5098
0.51569
0.50588
0.48431
0.46471
0.4451
0.42549
0.4098
0.4
0.39412
0.38431
0.38431
0.38039
0.38039
0.37451
0.37451
0.38039
0.38431
0.3902
0.3902
0.38431
0.38039
0.38039
0.38039
0.38039
0.38431
0.38431
0.38039
0.38039
0.38039
0.37451
0.37451
0.38039
0.37451
0.38039
0.38039
0.38039
0.38431
0.38431
0.3902
0.39412
0.4
0.40392
0.41961
0.42941
0.42549
0.41961
0.41961
0.40392
0.3902
0.38431
0.38039
0.38431
0.38431
0.38039
0.37451
0.3549
0.33529
0.36471
0.51961
0.7451
0.81569
0.70588
0.55098
0.44902
0.40392
0.38431
0.37451
0.37451
0.37451
0.37451
0.38039
0.38039
0.38039
0.38431
0.38431
0.39412
0.4
0.4098
0.41961
0.42941
0.43922
0.4549
0.47059
0.48039
0.48431
0.4902
0.49412
0.48431
0.46471
0.44902
0.42941
0.4
0.38431
0.37451
0.37059
0.36471
0.36471
0.37059
0.37451
0.37059
0.37059
0.37451
0.37451
0.37451
0.38039
0.38431
0.38431
0.38431
0.38431
0.38431
0.38039
0.38039
0.38039
0.38431
0.3902
0.38431
0.38431
0.38431
0.38039
0.38039
0.38039
0.38039
0.38039
0.38431
0.39412
0.4
0.40392
0.4098
0.41569
0.41961
0.41961
0.41569
0.4098
0.4
0.3902
0.38431
0.38039
0.38039
0.37451
0.37451
0.38039
0.3549
0.37451
0.5
0.7098
0.81176
0.71569
0.5549
0.44902
0.4098
0.39412
0.38039
0.37451
0.37451
0.37059
0.37059
0.37451
0.38039
0.38039
0.38431
0.39412
0.4
0.40392
0.41569
0.40392
0.4098
0.43922
0.46471
0.48431
0.49412
0.5
0.49412
0.48431
0.46471
0.44902
0.43529
0.41569
0.4
0.38431
0.37451
0.37059
0.35882
0.35882
0.35882
0.35882
0.35882
0.36471
0.37059
0.36471
0.36471
0.37059
0.37451
0.37451
0.37059
0.37451
0.38039
0.38039
0.37451
0.37451
0.37059
0.36471
0.36471
0.36471
0.36471
0.36471
0.35882
0.35882
0.35882
0.37059
0.37059
0.38039
0.39412
0.40392
0.40392
0.4098
0.40392
0.39412
0.38039
0.37059
0.36471
0.36471
0.36471
0.36471
0.35882
0.3549
0.33922
0.32353
0.37059
0.53529
0.7451
0.8
0.66471
0.5098
0.41961
0.38431
0.37059
0.35882
0.35882
0.36471
0.37059
0.37059
0.37451
0.37451
0.38039
0.38039
0.38431
0.39412
0.40392
0.41569
0.42941
0.4451
0.44902
0.46078
0.47059
0.48039
0.48431
0.48039
0.47059
0.4549
0.43529
0.4098
0.38431
0.37059
0.35882
0.3549
0.3549
0.35882
0.35882
0.35882
0.35882
0.35882
0.35882
0.35882
0.36471
0.37059
0.37451
0.38039
0.38039
0.38039
0.37451
0.37451
0.38039
0.38039
0.38039
0.38039
0.38039
0.37451
0.37059
0.37059
0.37059
0.37059
0.37059
0.38039
0.38431
0.39412
0.39412
0.39412
0.40392
0.4098
0.4098
0.4098
0.4098
0.4
0.38431
0.37451
0.37059
0.37059
0.37059
0.37451
0.37059
0.3549
0.33922
0.38431
0.55098
0.76078
0.81569
0.6902
0.53922
0.44902
0.4098
0.39412
0.38039
0.37059
0.37059
0.36471
0.37059
0.37059
0.37451
0.38039
0.38431
0.38431
0.38431
0.3902
0.4
0.4098
0.41961
0.43529
0.44902
0.46471
0.47059
0.48039
0.47451
0.46471
0.44902
0.43529
0.41569
0.39412
0.38039
0.37059
0.35882
0.3549
0.3549
0.3549
0.35882
0.36471
0.37059
0.37059
0.36471
0.35882
0.35882
0.35882
0.3549
0.35882
0.36471
0.37059
0.37059
0.35882
0.35882
0.35882
0.3549
0.3549
0.3549
0.35882
0.35882
0.3549
0.3549
0.3549
0.3549
0.35882
0.37059
0.38039
0.3902
0.4
0.40392
0.40392
0.4
0.39412
0.39412
0.38039
0.37451
0.37451
0.38039
0.37451
0.37451
0.37059
0.3549
0.33922
0.38431
0.56471
0.77059
0.82157
0.67059
0.51961
0.42941
0.39412
0.38039
0.37451
0.37059
0.37059
0.37059
0.37451
0.37451
0.37451
0.37451
0.38039
0.38431
0.39412
0.4
0.41569
0.42549
0.42941
0.4451
0.46078
0.48039
0.4902
0.49412
0.49412
0.48431
0.46471
0.44902
0.42941
0.4098
0.39412
0.3902
0.38431
0.38039
0.37451
0.37451
0.37451
0.37451
0.37451
0.37451
0.38039
0.38431
0.38431
0.39412
0.3902
0.38431
0.38039
0.38039
0.38039
0.38431
0.38431
0.38431
0.38431
0.38039
0.37451
0.37059
0.37059
0.37451
0.37451
0.38039
0.38431
0.38431
0.3902
0.4
0.40392
0.41569
0.41569
0.41961
0.42549
0.41569
0.4
0.39412
0.38431
0.38431
0.38431
0.3902
0.39412
0.38039
0.35882
0.38039
0.5098
0.72157
0.82549
0.73529
0.57451
0.47059
0.41961
0.40392
0.3902
0.38039
0.37451
0.37451
0.37451
0.38039
0.3902
0.39412
0.4
0.4
0.40392
0.40392
0.41569
0.42549
0.43922
0.46078
0.47059
0.48039
0.4902
0.49412
0.4902
0.48431
0.47059
0.4549
0.43529
0.41569
0.4
0.38431
0.37451
0.37451
0.37451
0.37451
0.37451
0.37451
0.38039
0.38431
0.38039
0.38039
0.38039
0.38431
0.38431
0.38431
0.39412
0.4
0.4
0.4
0.39412
0.38431
0.38039
0.38039
0.38431
0.38431
0.38431
0.38431
0.38039
0.38039
0.38039
0.38431
0.39412
0.4
0.41569
0.42549
0.42941
0.42941
0.42549
0.41569
0.40392
0.39412
0.39412
0.39412
0.4
0.39412
0.39412
0.38039
0.3549
0.36471
0.48431
0.71569
0.8451
0.77059
0.6098
0.4902
0.42941
0.40392
0.39412
0.38431
0.38431
0.38431
0.39412
0.39412
0.3902
0.3902
0.39412
0.4
0.4098
0.41961
0.43529
0.4451
0.4549
0.46471
0.48039
0.4902
0.5
0.5098
0.51569
0.5098
0.49412
0.47451
0.44902
0.42941
0.4098
0.4
0.39412
0.39412
0.3902
0.3902
0.38431
0.38431
0.38039
0.38039
0.38431
0.38431
0.38431
0.39412
0.39412
0.39412
0.39412
0.3902
0.3902
0.38431
0.38431
0.3902
0.39412
0.38431
0.38431
0.38039
0.38039
0.38039
0.38039
0.38039
0.38431
0.3902
0.4
0.40392
0.40392
0.41569
0.41961
0.42549
0.42549
0.41961
0.41569
0.40392
0.39412
0.38431
0.38431
0.38431
0.38431
0.38431
0.37451
0.3549
0.37059
0.48431
0.70588
0.83529
0.7549
0.6
0.4902
0.43529
0.40392
0.38431
0.38039
0.37451
0.37059
0.37451
0.38039
0.38431
0.38431
0.3902
0.4
0.4
0.40392
0.41569
0.42549
0.43529
0.4451
0.46078
0.48039
0.48431
0.4902
0.4902
0.48039
0.46471
0.4451
0.42941
0.41569
0.39412
0.38039
0.37059
0.36471
0.35882
0.35882
0.36471
0.37059
0.37059
0.37451
0.38039
0.38039
0.37451
0.37451
0.37451
0.38039
0.38039
0.38431
0.38431
0.3902
0.38039
0.37451
0.37451
0.37451
0.37451
0.37451
0.38039
0.38039
0.38039
0.38039
0.37451
0.37451
0.38039
0.38431
0.4
0.4098
0.41569
0.41569
0.4098
0.4
0.39412
0.38431
0.38039
0.38039
0.38039
0.38431
0.38431
0.37451
0.34902
0.3451
0.43922
0.6451
0.80588
0.82157
0.62549
0.4902
0.42549
0.39412
0.38431
0.37451
0.37451
0.38039
0.38039
0.38431
0.38431
0.3902
0.3902
0.3902
0.39412
0.40392
0.41569
0.42549
0.43922
0.44902
0.46078
0.47059
0.48039
0.48431
0.4902
0.4902
0.48039
0.46078
0.43529
0.4098
0.3902
0.37451
0.37059
0.36471
0.35882
0.35882
0.35882
0.35882
0.35882
0.36471
0.35882
0.35882
0.37059
0.37451
0.37451
0.37451
0.37451
0.37059
0.36471
0.36471
0.37059
0.37451
0.37451
0.38039
0.38039
0.37451
0.37059
0.37059
0.37059
0.37059
0.37451
0.38039
0.38431
0.3902
0.39412
0.39412
0.4
0.4098
0.41569
0.41569
0.40392
0.3902
0.38039
0.38039
0.38039
0.37451
0.37451
0.37451
0.36471
0.3451
0.37059
0.51569
0.73137
0.81176
0.70588
0.55098
0.4451
0.40392
0.39412
0.38039
0.37451
0.37059
0.37059
0.37059
0.37451
0.37451
0.38039
0.38431
0.39412
0.4
0.40392
0.41569
0.42549
0.43529
0.44902
0.47059
0.48039
0.48431
0.4902
0.49412
0.48431
0.47059
0.44902
0.42941
0.4098
0.3902
0.38039
0.37451
0.36471
0.35882
0.35882
0.37059
0.37059
0.37059
0.37059
0.37451
0.37451
0.38039
0.37451
0.37451
0.37059
0.37451
0.38039
0.38431
0.38431
0.38431
0.38039
0.37451
0.37451
0.37451
0.37451
0.37451
0.37451
0.37451
0.37451
0.37451
0.37451
0.37451
0.38039
0.39412
0.40392
0.4098
0.41569
0.40392
0.4
0.39412
0.38039
0.37451
0.37451
0.37451
0.38039
0.37451
0.37059
0.34902
0.33529
0.37451
0.5451
0.76078
0.81569
0.68627
0.52941
0.43922
0.4
0.38039
0.37059
0.37059
0.37059
0.37059
0.37451
0.38039
0.38039
0.38039
0.38431
0.38431
0.39412
0.40392
0.41569
0.42941
0.43922
0.4451
0.46078
0.47059
0.48039
0.48431
0.4902
0.48431
0.47059
0.44902
0.42941
0.40392
0.38431
0.37451
0.37451
0.37451
0.37451
0.37451
0.37451
0.37451
0.37059
0.37059
0.37059
0.37059
0.37451
0.37451
0.38039
0.38039
0.37451
0.37451
0.37451
0.37059
0.37451
0.37451
0.38039
0.38039
0.37451
0.37059
0.37059
0.37059
0.37059
0.37451
0.37451
0.38039
0.38431
0.38431
0.39412
0.4
0.40392
0.4098
0.41569
0.41569
0.41961
0.40392
0.39412
0.38431
0.38039
0.38039
0.38039
0.38039
0.37451
0.35882
0.34902
0.41961
0.6098
0.7902
0.81176
0.63529
0.49412
0.42941
0.4
0.38039
0.37059
0.36471
0.36471
0.35882
0.35882
0.36471
0.37059
0.37451
0.38039
0.38431
0.3902
0.39412
0.40392
0.41961
0.43529
0.44902
0.46471
0.48039
0.48431
0.48431
0.48039
0.47059
0.4549
0.43529
0.41569
0.39412
0.38039
0.36471
0.35882
0.35882
0.3549
0.3549
0.35882
0.36471
0.37059
0.36471
0.35882
0.36471
0.37059
0.37059
0.37451
0.38039
0.38039
0.38039
0.38039
0.38039
0.37451
0.37059
0.37059
0.37451
0.37451
0.37451
0.37451
0.37451
0.37059
0.36471
0.36471
0.37059
0.37451
0.38039
0.39412
0.40392
0.40392
0.40392
0.40392
0.4
0.3902
0.38039
0.37451
0.37451
0.37451
0.37451
0.37451
0.37059
0.34902
0.33922
0.4
0.57451
0.77647
0.81569
0.66078
0.50588
0.42549
0.4
0.3902
0.38039
0.37451
0.38039
0.38039
0.38039
0.38039
0.38039
0.38431
0.3902
0.39412
0.40392
0.4098
0.41569
0.41961
0.43529
0.44902
0.46471
0.47451
0.4902
0.5
0.49412
0.48431
0.46471
0.4451
0.41961
0.4
0.38431
0.37451
0.37059
0.37059
0.37059
0.37059
0.36471
0.36471
0.36471
0.37059
0.37451
0.38039
0.38431
0.38039
0.38039
0.38039
0.38039
0.38039
0.38039
0.38039
0.38431
0.38039
0.38039
0.38039
0.37451
0.37451
0.37059
0.37451
0.37451
0.37451
0.37451
0.37451
0.38039
0.38039
0.38431
0.4
0.40392
0.4098
0.41569
0.41569
0.4
0.38431
0.38039
0.37451
0.37059
0.37059
0.37059
0.37451
0.35882
0.33922
0.35882
0.5
0.71569
0.81569
0.71569
0.56078
0.4549
0.40392
0.3902
0.38039
0.37451
0.37451
0.37451
0.37451
0.38039
0.38431
0.3902
0.39412
0.39412
0.4
0.4098
0.41961
0.42941
0.4451
0.46078
0.47059
0.48431
0.4902
0.49412
0.4902
0.48431
0.47059
0.44902
0.42941
0.40392
0.38431
0.37451
0.35882
0.3549
0.3549
0.35882
0.35882
0.36471
0.37059
0.37059
0.36471
0.36471
0.36471
0.37059
0.38039
0.38039
0.38039
0.38039
0.38039
0.38039
0.38039
0.38039
0.37451
0.37451
0.37451
0.38039
0.38039
0.37451
0.37059
0.37059
0.37059
0.37059
0.38039
0.38431
0.38431
0.38431
0.39412
0.4
0.4
0.39412
0.4
0.4
0.38431
0.38039
0.37451
0.37451
0.37059
0.37059
0.37451
0.35882
0.3451
0.37059
0.51569
0.73137
0.82549
0.72549
0.57059
0.47059
0.41569
0.39412
0.38039
0.37451
0.37059
0.36471
0.36471
0.36471
0.37059
0.37451
0.38431
0.3902
0.39412
0.4
0.40392
0.4098
0.41961
0.43922
0.46078
0.47059
0.48039
0.4902
0.48431
0.48039
0.46471
0.4451
0.42549
0.40392
0.39412
0.38431
0.37451
0.37059
0.36471
0.35882
0.35882
0.36471
0.37059
0.37451
0.37451
0.37451
0.37451
0.37451
0.37059
0.37059
0.37451
0.38039
0.38039
0.38039
0.37451
0.37451
0.37059
0.37059
0.37059
0.37451
0.37451
0.37451
0.38039
0.38039
0.37451
0.37451
0.38039
0.38431
0.3902
0.39412
0.4098
0.41961
0.41961
0.4098
0.40392
0.40392
0.39412
0.38431
0.38431
0.38431
0.38431
0.38431
0.38039
0.36471
0.34902
0.38431
0.53922
0.7549
0.82157
0.70588
0.5451
0.4451
0.40392
0.39412
0.38431
0.38431
0.38431
0.38431
0.38431
0.38431
0.38431
0.38431
0.39412
0.4
0.4098
0.41961
0.42941
0.43922
0.44902
0.46471
0.47451
0.48431
0.4902
0.49412
0.50588
0.4902
0.47451
0.44902
0.42549
0.40392
0.38431
0.37451
0.37059
0.37059
0.37059
0.36471
0.35882
0.35882
0.35882
0.35882
0.37059
0.37451
0.37451
0.38039
0.37451
0.37451
0.37451
0.37451
0.38039
0.38039
0.38431
0.38431
0.38039
0.38039
0.38039
0.37451
0.37451
0.37451
0.37451
0.37451
0.38039
0.38039
0.38039
0.38431
0.39412
0.4
0.4098
0.41569
0.41961
0.41569
0.4098
0.4
0.38431
0.38039
0.37451
0.37451
0.37451
0.38039
0.37451
0.3549
0.34902
0.48039
0.6902
0.80588
0.72549
0.57059
0.4549
0.4098
0.39412
0.38039
0.37451
0.37059
0.37059
0.37059
0.38039
0.38431
0.3902
0.39412
0.40392
0.40392
0.4098
0.41569
0.42941
0.43922
0.46078
0.47451
0.4902
0.49412
0.49412
0.49412
0.4902
0.48039
0.46078
0.43922
0.41961
0.4
0.38431
0.38039
0.37059
0.37059
0.37059
0.37451
0.37451
0.37059
0.37059
0.37059
0.37059
0.37059
0.37059
0.37451
0.38039
0.38039
0.38039
0.38039
0.38039
0.38039
0.38039
0.38039
0.37451
0.37451
0.38039
0.38039
0.38039
0.37451
0.37451
0.37451
0.37451
0.38039
0.39412
0.4
0.41569
0.41961
0.41961
0.42549
0.41961
0.41569
0.40392
0.4
0.38431
0.38431
0.38039
0.37451
0.37059
0.36471
0.34902
0.33922
0.39412
0.58431
0.7902
0.82549
0.66471
0.5098
0.42549
0.39412
0.38039
0.37451
0.37451
0.37451
0.37451
0.37451
0.38039
0.38039
0.38431
0.3902
0.4
0.40392
0.41569
0.41961
0.43529
0.43922
0.4549
0.47059
0.48431
0.49412
0.50588
0.5
0.4902
0.46471
0.4451
0.41961
0.4
0.38431
0.38039
0.37451
0.37451
0.37059
0.36471
0.35882
0.35882
0.35882
0.37059
0.37451
0.38039
0.37451
0.37451
0.37451
0.37451
0.37451
0.37451
0.37451
0.37451
0.38039
0.38039
0.38039
0.37451
0.37451
0.37059
0.37451
0.37451
0.37451
0.37451
0.37451
0.37451
0.37451
0.38039
0.38431
0.39412
0.4
0.41569
0.41569
0.4098
0.40392
0.4
0.38431
0.37059
0.37059
0.37059
0.37451
0.37059
0.36471
0.34902
0.32941
0.35882
0.5098
0.73529
0.82157
0.7098
0.56078
0.46471
0.41569
0.38431
0.37059
0.36471
0.35882
0.35882
0.37059
0.37451
0.37451
0.38039
0.38039
0.38431
0.3902
0.4
0.4098
0.41961
0.43529
0.4451
0.4549
0.46471
0.47059
0.47451
0.48039
0.47451
0.46078
0.43922
0.41961
0.4
0.38039
0.37059
0.35882
0.35882
0.35882
0.35882
0.35882
0.36471
0.36471
0.35882
0.35882
0.36471
0.37059
0.37059
0.37451
0.37451
0.37451
0.37451
0.37451
0.37451
0.37451
0.37451
0.38039
0.38431
0.38039
0.38039
0.37451
0.37059
0.37059
0.37059
0.37059
0.37451
0.38039
0.38431
0.39412
0.4
0.4098
0.41569
0.41569
0.41569
0.40392
0.39412
0.38039
0.37451
0.37059
0.37451
0.37451
0.37451
0.37059
0.34902
0.3549
0.44902
0.66078
0.80588
0.75098
0.5902
0.46078
0.4098
0.39412
0.38039
0.37451
0.37059
0.37059
0.37059
0.37451
0.38039
0.38431
0.3902
0.39412
0.4
0.40392
0.4098
0.41961
0.43529
0.4451
0.46078
0.48039
0.49412
0.50588
0.5
0.4902
0.47451
0.4549
0.42941
0.4098
0.39412
0.38039
0.37451
0.37059
0.35882
0.35882
0.3549
0.35882
0.37059
0.37059
0.37059
0.37451
0.37059
0.37059
0.37059
0.37451
0.37451
0.38039
0.38039
0.38039
0.38039
0.37451
0.37059
0.37059
0.37059
0.37059
0.37451
0.38039
0.38039
0.38039
0.38039
0.38039
0.38039
0.38039
0.3902
0.4
0.41569
0.41961
0.41961
0.42549
0.41569
0.4
0.3902
0.38431
0.38039
0.38431
0.38431
0.38431
0.37451
0.3549
0.33922
0.3902
0.57059
0.77059
0.80588
0.6549
0.50588
0.41961
0.3902
0.37451
0.37059
0.37059
0.37451
0.37451
0.37451
0.38039
0.38431
0.38431
0.38431
0.3902
0.4
0.40392
0.41961
0.43529
0.4451
0.46078
0.46471
0.48039
0.4902
0.49412
0.49412
0.4902
0.46471
0.4451
0.42549
0.40392
0.38431
0.37451
0.37451
0.37451
0.37451
0.37059
0.37059
0.37059
0.36471
0.36471
0.37059
0.37451
0.38039
0.38039
0.38039
0.38039
0.38039
0.38039
0.38039
0.38039
0.38039
0.38039
0.38039
0.38431
0.37451
0.37059
0.37059
0.37059
0.37059
0.37451
0.37451
0.38039
0.38431
0.3902
0.39412
0.4
0.40392
0.41569
0.41569
0.41961
0.4098
0.4
0.3902
0.38039
0.37451
0.37451
0.37451
0.37451
0.37059
0.34902
0.3451
0.42549
0.62549
0.8
0.81569
0.63529
0.5
0.42941
0.4
0.38039
0.37059
0.37059
0.36471
0.36471
0.37059
0.37451
0.38431
0.3902
0.39412
0.4
0.40392
0.4098
0.41961
0.42941
0.4451
0.46078
0.47059
0.48431
0.4902
0.4902
0.4902
0.48039
0.46078
0.43922
0.41961
0.40392
0.38431
0.37059
0.36471
0.35882
0.35882
0.3549
0.35882
0.36471
0.36471
0.36471
0.35882
0.35882
0.35882
0.35882
0.36471
0.37059
0.37451
0.38039
0.38431
0.38039
0.37451
0.37451
0.37451
0.38039
0.38039
0.38039
0.38039
0.38039
0.37451
0.37451
0.37451
0.37451
0.38039
0.3902
0.4
0.40392
0.4098
0.41569
0.41569
0.40392
0.4
0.39412
0.38039
0.37451
0.37059
0.37059
0.37059
0.36471
0.35882
0.3451
0.33922
0.4
0.5902
0.78039
0.81569
0.64118
0.5
0.42549
0.39412
0.38039
0.37451
0.37059
0.37059
0.36471
0.35882
0.36471
0.37059
0.37451
0.38039
0.3902
0.4
0.40392
0.41569
0.42549
0.43529
0.4451
0.46471
0.48039
0.48431
0.4902
0.48431
0.47059
0.44902
0.42941
0.40392
0.3902
0.38039
0.37451
0.37059
0.37059
0.37059
0.36471
0.37059
0.37059
0.37059
0.37059
0.37059
0.37451
0.37451
0.37059
0.37059
0.37059
0.37059
0.37059
0.37059
0.37451
0.37451
0.37059
0.37059
0.37059
0.36471
0.35882
0.35882
0.35882
0.35882
0.36471
0.37059
0.37059
0.37451
0.37451
0.38431
0.39412
0.40392
0.4098
0.41569
0.41569
0.4
0.38039
0.37451
0.37059
0.37059
0.37059
0.37451
0.37059
0.34902
0.32941
0.35882
0.51569
0.72157
0.79608
0.68627
0.52549
0.42941
0.39412
0.37451
0.36471
0.35882
0.35882
0.35882
0.36471
0.37059
0.37451
0.38039
0.38039
0.38431
0.39412
0.40392
0.41569
0.42549
0.43922
0.4549
0.46471
0.47059
0.48431
0.4902
0.4902
0.48431
0.47059
0.44902
0.42941
0.4
0.38431
0.37451
0.37059
0.37059
0.37059
0.37059
0.37059
0.37059
0.37059
0.37059
0.37059
0.36471
0.37059
0.37451
0.37451
0.38039
0.38039
0.38039
0.38039
0.38039
0.38039
0.37451
0.37451
0.38039
0.38039
0.37451
0.37059
0.37059
0.37059
0.37059
0.37451
0.37451
0.38039
0.38431
0.39412
0.4
0.40392
0.40392
0.4098
0.41569
0.40392
0.39412
0.38431
0.38039
0.37451
0.37059
0.37059
0.37059
0.36471
0.34902
0.33922
0.4549
0.66078
0.80588
0.7549
0.59608
0.46471
0.4098
0.39412
0.38431
0.38039
0.37451
0.37059
0.37059
0.37059
0.37451
0.38039
0.38431
0.39412
0.39412
0.4
0.40392
0.41961
0.42941
0.4451
0.46471
0.48039
0.48431
0.49412
0.4902
0.48431
0.47059
0.4549
0.42941
0.40392
0.39412
0.38039
0.37451
0.37059
0.36471
0.35882
0.35882
0.36471
0.37059
0.37451
0.38039
0.37451
0.37451
0.37451
0.37451
0.37451
0.37451
0.38431
0.38431
0.3902
0.39412
0.3902
0.38431
0.38039
0.38039
0.38431
0.38431
0.38431
0.38431
0.38431
0.38431
0.38039
0.38039
0.38431
0.39412
0.4
0.41569
0.41961
0.41961
0.41961
0.41569
0.41569
0.40392
0.39412
0.39412
0.3902
0.38431
0.38431
0.38431
0.37451
0.35882
0.33922
0.36471
0.50588
0.72549
0.82549
0.73529
0.57451
0.47059
0.41569
0.3902
0.37451
0.37059
0.37059
0.37059
0.37059
0.37059
0.37451
0.37451
0.38039
0.38431
0.39412
0.40392
0.41569
0.41961
0.43529
0.4451
0.46471
0.48039
0.4902
0.49412
0.5
0.49412
0.48039
0.4549
0.42941
0.4
0.38431
0.38039
0.37451
0.37059
0.37059
0.35882
0.35882
0.35882
0.35882
0.36471
0.37059
0.37451
0.38039
0.37451
0.37451
0.37451
0.37451
0.37059
0.37059
0.37451
0.37451
0.37451
0.37451
0.37451
0.37451
0.37059
0.37059
0.37059
0.37059
0.37451
0.37451
0.37451
0.37451
0.38039
0.38431
0.39412
0.4
0.4098
0.41569
0.41961
0.41569
0.40392
0.39412
0.38039
0.37451
0.37451
0.37451
0.37451
0.38039
0.37059
0.34902
0.3451
0.46471
0.67647
0.80588
0.7451
0.5902
0.47059
0.41569
0.4
0.38431
0.37451
0.37451
0.37451
0.37451
0.38039
0.38431
0.39412
0.39412
0.39412
0.4
0.4098
0.41961
0.43529
0.4451
0.4549
0.46471
0.47059
0.48431
0.4902
0.4902
0.48431
0.48039
0.46078
0.43922
0.41569
0.39412
0.37451
0.37059
0.36471
0.36471
0.37059
0.37059
0.37059
0.37059
0.37059
0.36471
0.35882
0.37059
0.37451
0.37451
0.37451
0.37451
0.37451
0.37451
0.37451
0.37451
0.37451
0.37059
0.37451
0.37451
0.37451
0.37059
0.37059
0.37059
0.37059
0.37059
0.37059
0.37451
0.38039
0.38431
0.39412
0.40392
0.40392
0.40392
0.40392
0.40392
0.4
0.3902
0.38431
0.38039
0.37451
0.37451
0.37451
0.37059
0.34902
0.33922
0.40392
0.59608
0.78039
0.81176
0.63529
0.49412
0.41961
0.39412
0.38431
0.38039
0.37451
0.37451
0.37451
0.37451
0.37451
0.37451
0.38431
0.3902
0.39412
0.40392
0.4098
0.41961
0.42549
0.43922
0.4549
0.47059
0.48039
0.4902
0.49412
0.48431
0.48039
0.46078
0.43922
0.41961
0.4
0.38431
0.37451
0.37059
0.35882
0.35882
0.35882
0.35882
0.35882
0.35882
0.37059
0.37059
0.37059
0.37059
0.37059
0.37059
0.37059
0.37059
0.37451
0.37451
0.38039
0.38039
0.37451
0.37451
0.37059
0.37451
0.37451
0.37451
0.37451
0.38039
0.38039
0.38039
0.38039
0.38431
0.39412
0.40392
0.41569
0.41961
0.41961
0.41961
0.41569
0.4
0.38431
0.38039
0.38039
0.38039
0.37451
0.37451
0.37451
0.3549
0.33529
0.37451
0.53922
0.7549
0.81569
0.6902
0.52941
0.43922
0.4
0.38039
0.37451
