0.56006
0.58984
0.625
0.58008
0.56006
0.60986
0.58496
0.6001
0.56494
0.56494
0.54492
0.58008
0.54004
0.52979
0.54492
0.56006
0.52002
0.44482
0.4248
0.48486
0.40479
0.4248
0.4248
0.36523
0.38525
0.43018
0.3999
0.35498
0.41016
0.47021
0.4248
0.37988
0.43506
0.47021
0.46484
0.4751
0.49023
0.5249
0.52002
0.53516
0.54004
0.49023
0.47021
0.50977
0.52002
0.47998
0.50488
0.51514
0.47998
0.48486
0.49512
0.5
0.4751
0.5
0.53516
0.5
0.49512
0.52002
0.51514
0.5
0.51514
0.5498
0.54004
0.55518
0.54492
0.56982
0.54492
0.51514
0.54492
0.56494
0.5498
0.56982
0.54492
0.52979
0.5498
0.55518
0.49512
0.56494
0.59521
0.47021
0.20508
-0.054688
-0.11963
0.23486
0.5
0.60498
0.625
0.58496
0.58008
0.60498
0.56982
0.60986
0.59521
0.625
0.56006
0.5752
0.5752
0.59521
0.56006
0.55518
0.58984
0.56006
0.53516
0.52979
0.55518
0.48486
0.5
0.46484
0.43994
0.46484
0.35986
0.39014
0.39502
0.37988
0.39502
0.39014
0.46484
0.4248
0.4751
0.49512
0.4502
0.48486
0.50977
0.43994
0.4248
0.5
0.50488
0.52002
0.48486
0.52002
0.4502
0.51514
0.50488
0.49512
0.49023
0.50488
0.49512
0.52979
0.5
0.48486
0.51514
0.54492
0.55518
0.52002
0.48486
0.5
0.54004
0.53516
0.56006
0.53516
0.54492
0.51514
0.56982
0.58008
0.52979
0.54004
0.56006
0.5752
0.5752
0.55518
0.5249
0.52002
0.5498
0.54004
0.56982
0.56494
0.56982
0.55518
0.56494
0.52002
0.53516
0.5498
0.52002
0.53516
0.55518
0.52002
0.50977
0.52979
0.5249
0.5498
0.55518
0.53516
0.52002
0.54004
0.49512
0.4502
0.50977
0.56006
0.56982
0.49023
0.25
-0.034668
-0.17969
0.1001
0.4502
0.625
0.66016
0.59521
0.62012
0.56494
0.58008
0.56494
0.56494
0.54492
0.58984
0.53516
0.56982
0.58496
0.5498
0.58008
0.54492
0.5249
0.56006
0.5498
0.52002
0.48486
0.45508
0.43994
0.46484
0.44482
0.38525
0.3999
0.37012
0.38525
0.37012
0.38525
0.41016
0.41992
0.3999
0.41992
0.46484
0.46484
0.45508
0.47021
0.43994
0.50488
0.48486
0.49023
0.46484
0.4751
0.45508
0.52002
0.55518
0.56006
0.52002
0.50488
0.51514
0.49512
0.51514
0.49023
0.52002
0.51514
0.5
0.50488
0.48486
0.50977
0.49512
0.53516
0.54492
0.56982
0.5752
0.53516
0.54492
0.50488
0.54004
0.54492
0.53516
0.56006
0.50488
0.5
0.52979
0.51514
0.52979
0.55518
0.55518
0.51514
0.50977
0.52979
0.50488
0.5249
0.50488
0.54004
0.52979
0.50488
0.5498
0.56006
0.53516
0.55518
0.5249
0.54004
0.52002
0.5249
0.52979
0.5
0.49023
0.5249
0.52002
0.56982
0.50488
0.49023
0.54004
0.5498
0.56006
0.49512
0.5
0.50977
0.54004
0.52002
0.49512
0.51514
0.49512
0.5249
0.53516
0.52979
0.50977
0.54004
0.45508
0.2251
-0.060059
-0.18506
0.10986
0.41992
0.56006
0.61475
0.6001
0.58984
0.60498
0.58008
0.56006
0.58008
0.60986
0.56006
0.54492
0.5752
0.5498
0.58496
0.5498
0.56494
0.58008
0.52002
0.5
0.5249
0.5
0.48486
0.4248
0.39502
0.39014
0.4248
0.40479
0.39014
0.39502
0.36523
0.40479
0.4502
0.41504
0.41016
0.41992
0.3999
0.4502
0.47998
0.45996
0.44482
0.49512
0.47021
0.4751
0.49512
0.50977
0.47021
0.49023
0.5249
0.51514
0.5249
0.50488
0.49023
0.51514
0.54004
0.4751
0.46484
0.5249
0.49023
0.49023
0.50977
0.54004
0.54492
0.52002
0.50488
0.56494
0.53516
0.5249
0.54492
0.55518
0.48486
0.4751
0.53516
0.51514
0.54004
0.52002
0.60986
0.62988
0.5752
0.3252
0.055176
-0.125
0.080078
0.33984
0.55518
0.63477
0.61475
0.58496
0.60498
0.625
0.60498
0.58008
0.56982
0.60498
0.6001
0.60498
0.55518
0.56494
0.58008
0.56494
0.55518
0.56494
0.56494
0.56982
0.5249
0.50977
0.47998
0.41016
0.43994
0.41504
0.35498
0.375
0.40479
0.43994
0.41992
0.3999
0.40479
0.4502
0.46484
0.49023
0.50488
0.49512
0.49512
0.4751
0.50488
0.52002
0.51514
0.53516
0.50977
0.5
0.48486
0.52002
0.50977
0.52002
0.49512
0.50977
0.48486
0.51514
0.53516
0.53516
0.56494
0.52979
0.52002
0.51514
0.58496
0.55518
0.50488
0.5249
0.53516
0.54492
0.56006
0.52979
0.50977
0.58496
0.54492
0.56494
0.58496
0.54004
0.56006
0.58008
0.54004
0.55518
0.5249
0.56006
0.56494
0.55518
0.54492
0.54004
0.58008
0.56982
0.52002
0.52979
0.54492
0.5249
0.54004
0.52979
0.54004
0.51514
0.49023
0.54492
0.59521
0.50977
0.49512
0.54004
0.48486
0.54004
0.5752
0.5
0.49512
0.49023
0.52002
0.50488
0.55518
0.56494
0.4751
0.51514
0.52979
0.49023
0.48486
0.56006
0.5249
0.52979
0.5
0.48486
0.54004
0.41992
0.1499
-0.069824
-0.12988
0.17529
0.45996
0.58984
0.64502
0.65479
0.60986
0.60498
0.59521
0.62012
0.51514
0.52979
0.56494
0.59521
0.60986
0.56006
0.5498
0.54004
0.54492
0.5752
0.625
0.56494
0.50977
0.53516
0.47021
0.45996
0.45508
0.41992
0.37012
0.375
0.375
0.35498
0.41504
0.43994
0.375
0.4248
0.4502
0.43506
0.41992
0.46484
0.45996
0.5
0.47021
0.43994
0.45996
0.51514
0.52002
0.47998
0.47021
0.50977
0.52002
0.53516
0.49023
0.43994
0.47021
0.49023
0.46484
0.5
0.49512
0.50488
0.51514
0.49512
0.52002
0.50977
0.56982
0.54004
0.50977
0.47998
0.5249
0.55518
0.5249
0.50977
0.53516
0.50488
0.52002
0.51514
0.5
0.56982
0.58984
0.60498
0.41992
0.17529
-0.049805
-0.11963
0.20508
0.49512
0.625
0.66504
0.60498
0.56982
0.55518
0.64014
0.56982
0.58984
0.6001
0.62012
0.56982
0.6001
0.60986
0.56494
0.5752
0.60498
0.5752
0.58496
0.56006
0.50977
0.48486
0.49512
0.4502
0.40479
0.38525
0.37988
0.40479
0.39014
0.43018
0.40479
0.4248
0.41992
0.47021
0.4502
0.49023
0.47021
0.5
0.5498
0.49512
0.45996
0.50977
0.4751
0.54492
0.52002
0.50488
0.51514
0.49023
0.49512
0.5
0.54492
0.56982
0.54004
0.5249
0.5498
0.50977
0.51514
0.49023
0.4751
0.56006
0.56982
0.50488
0.5249
0.52979
0.56494
0.56982
0.56494
0.54004
0.53516
0.54492
0.51514
0.52002
0.56494
0.54492
0.54492
0.52002
0.51514
0.56006
0.56494
0.56982
0.53516
0.54004
0.5752
0.60498
0.43506
0.17529
-0.084961
-0.12988
0.22998
0.49023
0.63477
0.66016
0.62988
0.6001
0.5752
0.60986
0.6001
0.58496
0.58008
0.6499
0.58496
0.56494
0.56006
0.60498
0.56006
0.58008
0.5498
0.5498
0.56006
0.4751
0.4502
0.4751
0.44482
0.40479
0.3999
0.44482
0.45508
0.36523
0.43018
0.43994
0.4248
0.43994
0.41992
0.41504
0.44482
0.46484
0.43506
0.47998
0.49023
0.50977
0.48486
0.4751
0.50977
0.47021
0.5
0.50488
0.46484
0.48486
0.51514
0.4751
0.47021
0.52002
0.5
0.54492
0.54492
0.50977
0.48486
0.49023
0.52979
0.50488
0.49512
0.54492
0.51514
0.50488
0.49512
0.52979
0.52002
0.54004
0.50977
0.5498
0.53516
0.58008
0.59521
0.56006
0.56494
0.5752
0.53516
0.58496
0.60498
0.45508
0.14014
-0.11963
-0.16504
0.20996
0.49023
0.59521
0.63477
0.64014
0.66016
0.65479
0.60498
0.58984
0.60986
0.62012
0.58008
0.60986
0.5498
0.56982
0.62012
0.58008
0.55518
0.54004
0.56494
0.54492
0.51514
0.52979
0.4751
0.4248
0.41992
0.44482
0.40479
0.3999
0.43018
0.44482
0.4248
0.44482
0.41992
0.43018
0.41504
0.41016
0.49023
0.47021
0.48486
0.46484
0.48486
0.49512
0.51514
0.49512
0.54004
0.47998
0.49512
0.48486
0.50488
0.4751
0.49023
0.53516
0.5498
0.58008
0.52979
0.50488
0.5249
0.5498
0.54004
0.53516
0.54492
0.53516
0.5498
0.49023
0.51514
0.54492
0.5498
0.49512
0.54004
0.58496
0.5752
0.56982
0.5498
0.56006
0.53516
0.54004
0.5249
0.56982
0.54492
0.5498
0.52979
0.54004
0.5
0.48486
0.54004
0.5498
0.52979
0.54492
0.51514
0.54492
0.51514
0.50488
0.55518
0.54004
0.58984
0.60986
0.41016
0.15527
-0.049805
-0.12988
0.16992
0.45508
0.58496
0.60986
0.58496
0.56494
0.58496
0.55518
0.6001
0.62012
0.58496
0.61475
0.52002
0.56494
0.5498
0.60986
0.58008
0.52002
0.54004
0.56006
0.54004
0.52979
0.4751
0.48486
0.4502
0.44482
0.40479
0.37988
0.375
0.37988
0.39502
0.3501
0.3999
0.3999
0.4248
0.46484
0.41992
0.41992
0.47021
0.4502
0.43506
0.47021
0.50977
0.49023
0.51514
0.47021
0.49512
0.50488
0.47998
0.5
0.50488
0.4751
0.50977
0.52002
0.52979
0.48486
0.51514
0.50977
0.51514
0.5249
0.5498
0.56006
0.5498
0.52979
0.52002
0.5249
0.51514
0.50488
0.51514
0.55518
0.45508
0.5
0.56494
0.53516
0.54492
0.52979
0.56494
0.56006
0.6001
0.625
0.4751
0.20508
-0.024902
-0.10498
0.18018
0.45996
0.55518
0.61475
0.62988
0.60986
0.60986
0.62012
0.62988
0.54004
0.58984
0.64502
0.58008
0.54004
0.59521
0.58496
0.61475
0.58496
0.58984
0.51514
0.49023
0.54004
0.50977
0.50977
0.46484
0.43018
0.43506
0.37012
0.35986
0.41016
0.37012
0.41992
0.43506
0.41992
0.41504
0.43018
0.4502
0.51514
0.5
0.46484
0.49023
0.5249
0.49512
0.5
0.54004
0.5249
0.54004
0.49023
0.50488
0.47998
0.51514
0.48486
0.4751
0.44482
0.48486
0.5249
0.52002
0.55518
0.52002
0.53516
0.54004
0.52979
0.5752
0.53516
0.54004
0.52002
0.5
0.47021
0.53516
0.5498
0.52979
0.54004
0.54492
0.51514
0.56982
0.50488
0.53516
0.56982
0.56494
0.59521
0.56494
0.5752
0.55518
0.53516
0.52979
0.56494
0.52979
0.5498
0.52002
0.53516
0.52979
0.50977
0.52002
0.51514
0.54492
0.55518
0.5249
0.56006
0.56494
0.54492
0.59521
0.5249
0.51514
0.49512
0.54492
0.58496
0.52979
0.31006
0.084961
-0.10986
-0.0048828
0.30029
0.58008
0.62988
0.60498
0.60986
0.58008
0.5752
0.6499
0.61475
0.60986
0.58496
0.61475
0.5752
0.56982
0.59521
0.56494
0.58008
0.54492
0.54004
0.52002
0.49023
0.49512
0.5
0.49023
0.44482
0.43018
0.4248
0.45508
0.4248
0.37012
0.39014
0.375
0.34521
0.37988
0.43018
0.43506
0.3999
0.40479
0.4502
0.4751
0.48486
0.41504
0.49023
0.50977
0.5249
0.49512
0.56006
0.49512
0.49023
0.50977
0.49023
0.54004
0.48486
0.5249
0.48486
0.47021
0.46484
0.49023
0.50488
0.54492
0.5249
0.53516
0.51514
0.52002
0.52979
0.52002
0.53516
0.58008
0.52979
0.51514
0.52002
0.51514
0.54492
0.53516
0.52002
0.54004
0.54004
0.54492
0.5249
0.49023
0.52979
0.54492
0.54004
0.52002
0.51514
0.56494
0.56982
0.54492
0.50488
0.25488
0.015137
-0.1748
0
0.33496
0.52979
0.62012
0.62988
0.58008
0.61475
0.56006
0.60986
0.58496
0.56006
0.58496
0.61475
0.59521
0.56006
0.54492
0.52979
0.56006
0.56494
0.53516
0.54492
0.5
0.4502
0.4751
0.45996
0.47021
0.43506
0.4248
0.39502
0.3999
0.37012
0.40479
0.41016
0.375
0.41504
0.39502
0.46484
0.43506
0.4751
0.4502
0.52002
0.52002
0.49023
0.45508
0.52979
0.54004
0.5
0.52002
0.47998
0.46484
0.5
0.52002
0.51514
0.47021
0.49023
0.49512
0.5
0.49023
0.50977
0.52979
0.56494
0.49512
0.4751
0.56494
0.5249
0.55518
0.54004
0.56006
0.53516
0.56006
0.51514
0.53516
0.55518
0.52002
0.52002
0.56494
0.53516
0.5
0.56494
0.50977
0.54492
0.60986
0.58984
0.51514
0.2749
0.070313
-0.084961
0.040039
0.39502
0.56982
0.64014
0.6499
0.59521
0.56982
0.60498
0.63477
0.58984
0.59521
0.58984
0.58496
0.61475
0.625
0.5752
0.56006
0.5752
0.5498
0.58984
0.59521
0.49512
0.47998
0.46484
0.4502
0.41992
0.40479
0.43994
0.45508
0.41016
0.39502
0.45996
0.43018
0.47021
0.4502
0.4248
0.43994
0.45508
0.44482
0.47021
0.47021
0.50488
0.52979
0.47998
0.49512
0.5
0.53516
0.49512
0.47998
0.54004
0.50977
0.54492
0.54004
0.5498
0.52002
0.53516
0.4502
0.5
0.5249
0.54004
0.47021
0.5
0.56006
0.56494
0.51514
0.50977
0.50488
0.52002
0.53516
0.56982
0.53516
0.56982
0.54492
0.5249
0.52002
0.56982
0.58496
0.5498
0.56494
0.6001
0.54004
0.33008
0.084961
-0.125
0.064941
0.3501
0.52979
0.58984
0.64502
0.66504
0.58496
0.5752
0.58496
0.60986
0.58984
0.59521
0.6499
0.56982
0.55518
0.58496
0.5752
0.61475
0.56494
0.54492
0.50977
0.5249
0.49512
0.5
0.45508
0.41016
0.39014
0.4248
0.3999
0.43506
0.41016
0.39502
0.43018
0.44482
0.4248
0.41504
0.46484
0.4248
0.47021
0.47021
0.49512
0.49023
0.4502
0.49023
0.52002
0.50488
0.52002
0.5
0.47021
0.49512
0.5
0.4751
0.47021
0.52002
0.52979
0.4751
0.5249
0.47998
0.45996
0.52002
0.54492
0.54004
0.5249
0.54004
0.50977
0.49512
0.54492
0.56006
0.5498
0.5752
0.5498
0.41504
0.14502
-0.094727
-0.125
0.33496
0.56006
0.62012
0.625
0.60498
0.61475
0.64502
0.6499
0.60986
0.58496
0.56494
0.60986
0.5752
0.56494
0.58984
0.58008
0.56982
0.58496
0.53516
0.50977
0.5
0.51514
0.46484
0.44482
0.41992
0.38525
0.41016
0.41992
0.40479
0.49512
0.43506
0.3999
0.39014
0.46484
0.47021
0.4502
0.45508
0.44482
0.4248
0.4751
0.47021
0.50977
0.52002
0.49023
0.46484
0.50977
0.52979
0.5
0.52002
0.44482
0.47021
0.49512
0.45508
0.4751
0.49023
0.49512
0.52002
0.49023
0.48486
0.49023
0.56494
0.59521
0.54004
0.5249
0.53516
0.55518
0.5249
0.53516
0.51514
0.5752
0.58008
0.52979
0.51514
0.5752
0.5498
0.62012
0.52979
0.5
0.53516
0.54492
0.53516
0.52979
0.54004
0.55518
0.56006
0.53516
0.56982
0.60498
0.47998
0.23486
0.0048828
-0.080078
0.1499
0.4248
0.59521
0.62012
0.58008
0.6001
0.61475
0.62988
0.62012
0.58008
0.56494
0.58008
0.59521
0.58008
0.58496
0.56006
0.56494
0.56006
0.54004
0.53516
0.52979
0.5498
0.5
0.47998
0.49512
0.45508
0.4248
0.43506
0.39502
0.41992
0.39014
0.39502
0.39014
0.40479
0.41992
0.39014
0.44482
0.44482
0.41992
0.41504
0.4502
0.5
0.50977
0.52002
0.49023
0.56006
0.52979
0.53516
0.49512
0.50977
0.52002
0.52979
0.54492
0.5249
0.5
0.49512
0.5
0.4751
0.54004
0.53516
0.5498
0.5249
0.5752
0.54004
0.5249
0.56006
0.58496
0.52979
0.55518
0.56006
0.58496
0.55518
0.5498
0.53516
0.5752
0.6001
0.53516
0.58984
0.60498
0.38525
0.095215
-0.10986
-0.11963
0.3252
0.56494
0.62988
0.62012
0.62988
0.6001
0.64014
0.68018
0.58496
0.6001
0.59521
0.62012
0.60498
0.56982
0.56494
0.5752
0.58496
0.56494
0.54492
0.50488
0.47998
0.56006
0.51514
0.50488
0.47021
0.46484
0.5
0.41992
0.3999
0.4248
0.43506
0.41016
0.35986
0.41504
0.45996
0.43018
0.47021
0.47021
0.49023
0.52002
0.54492
0.49023
0.53516
0.54004
0.5
0.52002
0.50488
0.49023
0.50977
0.51514
0.52002
0.47998
0.52002
0.5249
0.51514
0.50488
0.55518
0.5249
0.51514
0.53516
0.5249
0.56494
0.54492
0.5249
0.55518
0.50488
0.5249
0.54004
0.5498
0.52002
0.54004
0.5498
0.54492
0.54492
0.56982
0.51514
0.54004
0.5498
0.54004
0.56982
0.51514
0.5249
0.49512
0.53516
0.52002
0.54004
0.54492
0.5
0.49512
0.54004
0.5498
0.54004
0.54004
0.52979
0.56006
0.54492
0.55518
0.5498
0.40479
0.17529
-0.054688
-0.13477
0.19531
0.45996
0.58496
0.63477
0.62012
0.61475
0.625
0.6001
0.62012
0.62988
0.58984
0.55518
0.54004
0.58496
0.56494
0.59521
0.58008
0.58984
0.56982
0.5752
0.54004
0.50977
0.49512
0.46484
0.43994
0.47021
0.4248
0.40479
0.35498
0.39014
0.43994
0.41992
0.40479
0.43506
0.40479
0.4248
0.38525
0.37012
0.43018
0.4248
0.4502
0.47021
0.45508
0.47998
0.46484
0.49512
0.51514
0.5
0.45996
0.45996
0.45508
0.47021
0.49023
0.47021
0.4751
0.5
0.50488
0.46484
0.45508
0.50488
0.49512
0.51514
0.48486
0.51514
0.44482
0.49023
0.52979
0.52002
0.5752
0.52002
0.5
0.52979
0.51514
0.58984
0.6499
0.52002
0.25488
0.010254
-0.11963
0.12988
0.43018
0.61475
0.64014
0.59521
0.58496
0.60986
0.61475
0.64014
0.6001
0.58496
0.58008
0.60986
0.59521
0.53516
0.56982
0.58984
0.56494
0.56494
0.5752
0.54492
0.49023
0.51514
0.49512
0.47021
0.48486
0.43506
0.4248
0.4751
0.4502
0.43018
0.43506
0.41016
0.4248
0.41992
0.45996
0.4751
0.44482
0.49023
0.47021
0.46484
0.49512
0.47998
0.47021
0.5249
0.48486
0.53516
0.5498
0.52979
0.48486
0.5
0.5249
0.49512
0.50977
0.53516
0.52002
0.52979
0.52002
0.49023
0.50488
0.50977
0.53516
0.56982
0.49512
0.54492
0.56006
0.56006
0.53516
0.54492
0.52979
0.56494
0.54004
0.54492
0.55518
0.54492
0.5249
0.56006
0.54004
0.55518
0.56006
0.5
0.55518
0.5249
0.56494
0.5752
0.52979
0.54004
0.5249
0.5752
0.56982
0.60498
0.4502
0.2002
-0.040039
-0.099609
0.14502
0.43506
0.60498
0.62012
0.58984
0.60498
0.58008
0.60986
0.625
0.5752
0.56006
0.58496
0.59521
0.55518
0.55518
0.5752
0.58496
0.58984
0.54492
0.52979
0.56006
0.5249
0.48486
0.51514
0.47021
0.4502
0.45508
0.4248
0.3999
0.39502
0.375
0.37988
0.39014
0.4248
0.3999
0.39502
0.4248
0.41504
0.47998
0.47021
0.48486
0.50977
0.52002
0.47998
0.50977
0.5249
0.5
0.45508
0.43506
0.49023
0.47021
0.48486
0.52979
0.53516
0.52002
0.54004
0.52002
0.53516
0.50977
0.50488
0.53516
0.54004
0.55518
0.52979
0.50488
0.54004
0.50977
0.53516
0.54004
0.51514
0.5498
0.53516
0.56982
0.59521
0.60986
0.61475
0.46484
0.16016
-0.080078
-0.11475
0.28516
0.4751
0.64502
0.65479
0.58496
0.54492
0.63477
0.64014
0.58984
0.6001
0.60498
0.5752
0.60986
0.58008
0.625
0.6001
0.60986
0.54004
0.56006
0.56982
0.52002
0.47998
0.48486
0.45508
0.43018
0.41504
0.45996
0.41504
0.3999
0.43994
0.4248
0.43994
0.43018
0.47021
0.48486
0.41016
0.44482
0.49023
0.4751
0.51514
0.49023
0.46484
0.49023
0.51514
0.5249
0.49023
0.47021
0.52979
0.54004
0.52002
0.51514
0.5249
0.49512
0.4751
0.52979
0.50488
0.52002
0.52979
0.51514
0.4751
0.5
0.5249
0.56006
0.56494
0.5498
0.5
0.5249
0.56006
0.53516
0.52979
0.5752
0.58984
0.50977
0.30518
0.015137
-0.125
0.14502
0.43994
0.5498
0.56982
0.61475
0.59521
0.5752
0.60986
0.62012
0.59521
0.61475
0.58496
0.55518
0.60498
0.5752
0.56494
0.58984
0.56006
0.55518
0.54004
0.52002
0.52979
0.5
0.5249
0.47021
0.46484
0.44482
0.41992
0.3999
0.43994
0.41992
0.39502
0.4248
0.39502
0.40479
0.43018
0.44482
0.41992
0.49512
0.49512
0.5
0.48486
0.51514
0.52002
0.49512
0.5
0.53516
0.47021
0.50977
0.46484
0.4502
0.53516
0.50977
0.49512
0.50488
0.4502
0.52979
0.48486
0.53516
0.48486
0.47998
0.51514
0.49512
0.54492
0.5752
0.52979
0.48486
0.5
0.56494
0.54492
0.5249
0.52979
0.53516
0.56006
0.56494
0.5498
0.54492
0.58496
0.54004
0.59521
0.5249
0.51514
0.50977
0.54492
0.5498
0.52979
0.56006
0.5249
0.56006
0.625
0.52002
0.26514
0.02002
-0.099609
0.16992
0.3999
0.56006
0.62012
0.62012
0.6001
0.58008
0.62988
0.60498
0.60986
0.60498
0.62012
0.62012
0.60986
0.60498
0.5752
0.56494
0.54004
0.56006
0.52979
0.51514
0.47998
0.47021
0.5
0.50488
0.44482
0.48486
0.46484
0.4248
0.37988
0.45996
0.47021
0.3999
0.4248
0.39502
0.43018
0.47021
0.47998
0.46484
0.44482
0.47021
0.45996
0.4751
0.51514
0.52002
0.49023
0.51514
0.5249
0.49023
0.50977
0.50488
0.5249
0.53516
0.51514
0.50977
0.53516
0.50977
0.45996
0.45508
0.54004
0.5249
0.49512
0.48486
0.54004
0.56006
0.58984
0.54492
0.55518
0.51514
0.50488
0.52979
0.50977
0.52979
0.5752
0.58496
0.52979
0.49023
0.53516
0.5752
0.6001
0.54492
0.52002
0.54004
0.59521
0.55518
0.39502
0.1499
-0.089844
-0.125
0.29492
0.54492
0.62012
0.6499
0.66016
0.60498
0.58984
0.6001
0.56982
0.625
0.60498
0.61475
0.58496
0.58008
0.58984
0.5752
0.60986
0.54004
0.54492
0.54004
0.54492
0.49512
0.50977
0.46484
0.45508
0.43018
0.44482
0.4248
0.45996
0.41016
0.43506
0.41504
0.43018
0.39502
0.39014
0.45996
0.45508
0.47998
0.49512
0.46484
0.45508
0.53516
0.49023
0.49512
0.4751
0.47021
0.50977
0.49512
0.52002
0.50977
0.47998
0.50488
0.49512
0.50977
0.54004
0.51514
0.4751
0.49512
0.48486
0.54004
0.5498
0.50977
0.52979
0.53516
0.58496
0.60498
0.54004
0.56494
0.53516
0.52002
0.50977
0.52002
0.5249
0.49512
0.5
0.52002
0.56982
0.56006
0.56982
0.54492
0.55518
0.56494
0.54004
0.54492
0.52979
0.50977
0.54004
0.53516
0.58008
0.52979
0.28027
0.02002
-0.10986
0.060059
0.35498
0.62988
0.66992
0.60498
0.56982
0.58984
0.62988
0.6001
0.5752
0.58984
0.56982
0.59521
0.58008
0.55518
0.56982
0.55518
0.50977
0.52979
0.56006
0.5752
0.5
0.51514
0.47998
0.43994
0.41504
0.45996
0.4248
0.39502
0.37012
0.40479
0.39014
0.375
0.39014
0.40479
0.43994
0.46484
0.48486
0.4502
0.49512
0.45996
0.47021
0.50977
0.52002
0.5
0.49512
0.50977
0.48486
0.4751
0.50977
0.47998
0.52002
0.52979
0.51514
0.5
0.52979
0.51514
0.5
0.47021
0.50977
0.5
0.51514
0.52002
0.49023
0.52002
0.52979
0.5
0.52002
0.54004
0.5498
0.56006
0.5249
0.51514
0.56494
0.53516
0.5752
0.56006
0.52979
0.54004
0.5
0.4751
0.49512
0.5249
0.56006
0.52002
0.5498
0.56006
0.54004
0.5752
0.61475
0.41992
0.17529
-0.069824
-0.10498
0.21484
0.49023
0.63477
0.64502
0.66016
0.58496
0.60986
0.58984
0.60986
0.58984
0.5752
0.56006
0.58496
0.59521
0.58984
0.625
0.62988
0.5498
0.52002
0.55518
0.51514
0.49023
0.47998
0.4502
0.44482
0.43018
0.375
0.3999
0.44482
0.41504
0.45996
0.46484
0.47021
0.4248
0.4502
0.45996
0.4248
0.3999
0.44482
0.47998
0.46484
0.51514
0.48486
0.49512
0.50977
0.48486
0.5
0.5249
0.51514
0.50977
0.49512
0.48486
0.49023
0.48486
0.54004
0.5249
0.54004
0.50977
0.5
0.54004
0.54492
0.5
0.50488
0.51514
0.56494
0.58008
0.5
0.54004
0.56006
0.56494
0.52002
0.54004
0.5498
0.56494
0.54004
0.5498
0.5752
0.54004
0.55518
0.51514
0.56006
0.56494
0.52002
0.51514
0.53516
0.51514
0.50488
0.56494
0.52979
0.52002
0.55518
0.56006
0.52002
0.52979
0.56494
0.5249
0.34521
0.12012
-0.084961
-0.10498
0.34521
0.56006
0.64014
0.6499
0.625
0.58984
0.56494
0.55518
0.56982
0.6001
0.58496
0.5752
0.61475
0.56982
0.56494
0.56982
0.58984
0.59521
0.5249
0.5498
0.5249
0.53516
0.48486
0.4502
0.45508
0.45996
0.43994
0.39014
0.39502
0.375
0.37012
0.39502
0.37988
0.4502
0.41992
0.43506
0.43018
0.45508
0.43506
0.46484
0.4502
0.47998
0.46484
0.5
0.53516
0.51514
0.49512
0.50977
0.54004
0.54492
0.49512
0.52002
0.52979
0.48486
0.50488
0.52979
0.49512
0.5249
0.5
0.54004
0.50488
0.47021
0.47998
0.51514
0.50977
0.52002
0.54492
0.53516
0.56494
0.58496
0.6001
0.58496
0.59521
0.5249
0.53516
0.56006
0.52002
0.54492
0.53516
0.54004
0.5249
0.50977
0.53516
0.5249
0.54492
0.55518
0.53516
0.5498
0.5752
0.53516
0.54004
0.53516
0.5498
0.50977
0.52979
0.50977
0.5
0.56494
0.56982
0.30518
0.040039
-0.16504
-0.1748
0.3252
0.52979
0.625
0.64014
0.65479
0.58496
0.5752
0.58496
0.59521
0.52979
0.56494
0.55518
0.5498
0.53516
0.56494
0.56982
0.54492
0.51514
0.52979
0.5249
0.54004
0.54492
0.5
0.45996
0.39502
0.41016
0.40479
0.39014
0.43018
0.33496
0.37012
0.41992
0.3999
0.41504
0.4248
0.41992
0.43994
0.4248
0.4502
0.45508
0.52002
0.52002
0.49023
0.47998
0.47021
0.46484
0.49512
0.5249
0.53516
0.49512
0.52979
0.56006
0.5
0.52979
0.50488
0.50977
0.54492
0.47998
0.48486
0.4751
0.52979
0.5498
0.52002
0.54004
0.5249
0.52002
0.55518
0.56982
0.56982
0.52002
0.50977
0.50488
0.54492
0.55518
0.5498
0.52002
0.5249
0.56982
0.5752
0.51514
0.56006
0.55518
0.56494
0.52979
0.49023
0.52979
0.56982
0.40479
0.10498
-0.069824
-0.13477
0.29004
0.56006
0.62988
0.63477
0.64014
0.64502
0.58496
0.6001
0.58496
0.55518
0.56982
0.625
0.56494
0.56006
0.58008
0.56982
0.58984
0.5498
0.53516
0.54492
0.53516
0.56494
0.50488
0.51514
0.44482
0.46484
0.41992
0.3999
0.3999
0.4248
0.39014
0.35986
0.36523
0.41504
0.43506
0.44482
0.43994
0.49512
0.5
0.45508
0.5
0.50488
0.50977
0.52979
0.5
0.48486
0.49512
0.52002
0.47021
0.5
0.49023
0.47021
0.49023
0.48486
0.5
0.50488
0.46484
0.52979
0.54004
0.50977
0.5
0.53516
0.52002
0.52002
0.52979
0.54004
0.49512
0.54492
0.56982
0.54492
0.56494
0.56006
0.52979
0.5249
0.54492
0.54004
0.5498
0.5249
0.56494
0.53516
0.55518
0.54004
0.56494
0.54492
0.62012
0.51514
0.54492
0.56494
0.52002
0.50977
0.54492
0.55518
0.5249
0.52979
0.50977
0.5
0.55518
0.58008
0.50488
0.50977
0.50488
0.54004
0.52979
0.47998
0.4502
0.51514
0.5249
0.54004
0.50977
0.5498
0.56006
0.49023
0.48486
0.52002
0.49512
0.48486
0.49512
0.52002
0.49023
0.54492
0.56982
0.58008
0.4248
0.19531
0
-0.15967
0.070313
0.37988
0.56982
0.625
0.62988
0.60498
0.6001
0.62012
0.58984
0.55518
0.55518
0.58008
0.58496
0.5498
0.54492
0.5752
0.55518
0.56494
0.58496
0.58984
0.56006
0.5
0.49023
0.45508
0.41992
0.4502
0.44482
0.43018
0.39014
0.375
0.40479
0.37012
0.43506
0.44482
0.3999
0.375
0.4248
0.46484
0.45508
0.46484
0.43506
0.49023
0.4751
0.49512
0.49512
0.50977
0.48486
0.49512
0.46484
0.49512
0.47998
0.55518
0.51514
0.47021
0.47998
0.44482
0.47998
0.5249
0.50977
0.5
0.52002
0.5
0.50977
0.49512
0.49023
0.49023
0.52979
0.50977
0.5498
0.53516
0.50977
0.52002
0.50488
0.53516
0.56494
0.54492
0.56982
0.5249
0.52979
0.51514
0.50488
0.5
0.5498
0.58496
0.55518
0.5752
0.44482
0.2002
-0.044922
-0.11475
0.19531
0.52002
0.62012
0.63477
0.58984
0.59521
0.60986
0.62988
0.64502
0.58496
0.5752
0.58984
0.59521
0.56494
0.58496
0.5752
0.52979
0.49512
0.5
0.52979
0.54492
0.51514
0.4751
0.45996
0.47998
0.4248
0.40479
0.39502
0.39502
0.41016
0.41504
0.38525
0.38525
0.38525
0.39502
0.39502
0.45996
0.47998
0.47021
0.46484
0.52002
0.51514
0.49512
0.50977
0.52979
0.54492
0.48486
0.47998
0.50488
0.50977
0.49512
0.5
0.5249
0.52979
0.52002
0.5249
0.46484
0.49023
0.5
0.54492
0.5752
0.5498
0.5249
0.53516
0.54004
0.53516
0.54004
0.51514
0.53516
0.5249
0.49512
0.52979
0.5
0.54492
0.55518
0.54492
0.58008
0.5498
0.53516
0.54004
0.53516
0.54004
0.55518
0.52002
0.4751
0.51514
0.50488
0.54004
0.52979
0.53516
0.51514
0.54492
0.54004
0.52979
0.54004
0.54492
0.5249
0.55518
0.5752
0.5249
0.5
0.5249
0.54004
0.50488
0.4751
0.49023
0.50488
0.49023
0.51514
0.50977
0.58984
0.43994
0.20508
-0.0097656
-0.11963
0.19531
0.45996
0.64502
0.66016
0.60986
0.58008
0.63477
0.64502
0.54004
0.56006
0.54492
0.56494
0.56006
0.55518
0.58984
0.60986
0.58984
0.5752
0.58008
0.56006
0.58008
0.5249
0.45508
0.4248
0.43018
0.4248
0.39502
0.38525
0.37988
0.41016
0.39014
0.3999
0.43506
0.38525
0.37988
0.41504
0.46484
0.43506
0.4248
0.46484
0.47998
0.45996
0.4751
0.46484
0.48486
0.47998
0.49512
0.4751
0.4502
0.5
0.52979
0.53516
0.5249
0.53516
0.48486
0.52002
0.50977
0.50488
0.52002
0.49512
0.5
0.49512
0.53516
0.5
0.52002
0.53516
0.5249
0.52002
0.56494
0.5498
0.54004
0.51514
0.55518
0.54492
0.49023
0.54492
0.5752
0.47998
0.52002
0.54004
0.59521
0.63477
0.40479
0.11523
-0.099609
-0.13477
0.30029
0.56006
0.66016
0.62012
0.55518
0.58008
0.60986
0.58496
0.60498
0.58984
0.625
0.62988
0.58984
0.60498
0.6001
0.60498
0.56982
0.59521
0.55518
0.54004
0.52979
0.50977
0.43994
0.47021
0.48486
0.43994
0.37988
0.41504
0.4248
0.39014
0.41992
0.4248
0.46484
0.47998
0.44482
0.43018
0.4502
0.43994
0.50488
0.48486
0.4751
0.47021
0.46484
0.5
0.5249
0.53516
0.51514
0.48486
0.49512
0.49023
0.50488
0.56494
0.52979
0.5
0.50488
0.50977
0.46484
0.48486
0.5249
0.52979
0.50977
0.49023
0.51514
0.5249
0.4751
0.54492
0.51514
0.5249
0.50977
0.56006
0.5
0.51514
0.54004
0.51514
0.53516
0.51514
0.49512
0.56982
0.58496
0.56006
0.41504
0.15527
-0.069824
-0.099609
0.19531
0.50977
0.61475
0.58984
0.60498
0.63477
0.64502
0.58008
0.59521
0.56494
0.58008
0.56494
0.58984
0.59521
0.60498
0.60986
0.58496
0.56494
0.54492
0.52002
0.51514
0.50977
0.48486
0.44482
0.43018
0.45996
0.41016
0.3999
0.4248
0.3999
0.39014
0.40479
0.4248
0.39014
0.43994
0.46484
0.44482
0.47021
0.49023
0.5
0.47021
0.50488
0.5
0.50977
0.47998
0.52979
0.53516
0.45508
0.44482
0.5249
0.52979
0.5
0.52002
0.48486
0.5249
0.56494
0.52979
0.5
0.54492
0.55518
0.53516
0.5498
0.5
0.48486
0.54004
0.55518
0.56494
0.52002
0.56006
0.53516
0.55518
0.54004
0.53516
0.5249
0.51514
0.52979
0.56006
0.56494
0.53516
0.5249
0.56982
0.55518
0.56982
0.54004
0.5498
0.54004
0.53516
0.56494
0.5249
0.50977
0.54004
0.54004
0.53516
0.49512
0.50977
0.52979
0.54004
0.55518
0.54492
0.54004
0.55518
0.55518
0.5752
0.50977
0.2251
-0.089844
-0.15479
0.12012
0.40479
0.5752
0.62012
0.58496
0.6001
0.59521
0.62012
0.6001
0.63477
0.54492
0.58008
0.56006
0.58984
0.59521
0.56982
0.56494
0.59521
0.5
0.49512
0.5249
0.5498
0.4502
0.43506
0.47021
0.4502
0.43994
0.43018
0.45508
0.4248
0.39502
0.38525
0.4248
0.40479
0.38525
0.36523
0.40479
0.43994
0.43018
0.4248
0.4751
0.49023
0.48486
0.5
0.54004
0.54492
0.47998
0.5
0.53516
0.50488
0.50977
0.49023
0.52002
0.47021
0.49512
0.5
0.51514
0.49023
0.52002
0.50488
0.49023
0.53516
0.5249
0.56982
0.58008
0.50977
0.45996
0.50977
0.53516
0.56006
0.52002
0.54492
0.5498
0.52979
0.54004
0.5249
0.56006
0.5249
0.53516
0.54004
0.52979
0.54492
0.56006
0.52002
0.53516
0.52002
0.56494
0.54004
0.50977
0.49512
0.5249
0.53516
0.54492
0.52002
0.54492
0.5249
0.51514
0.5249
0.52002
0.51514
0.54004
0.5498
0.51514
0.5
0.52002
0.52979
0.54004
0.4751
0.53516
0.56494
0.58984
0.49512
0.23486
-0.024902
-0.13965
0.16016
0.41016
0.59521
0.58984
0.60986
0.58008
0.5752
0.52002
0.625
0.62988
0.56982
0.6001
0.58984
0.58008
0.59521
0.56494
0.58008
0.55518
0.53516
0.49023
0.4751
0.52002
0.47021
0.5
0.49512
0.48486
0.43994
0.43018
0.43994
0.41504
0.375
0.35986
0.35498
0.40479
0.375
0.40479
0.3999
0.39014
0.4248
0.47998
0.46484
0.49023
0.45508
0.4751
0.5249
0.47998
0.4751
0.51514
0.49512
0.52002
0.49512
0.5
0.47998
0.45996
0.51514
0.49512
0.4751
0.46484
0.48486
0.46484
0.51514
0.52979
0.53516
0.49023
0.52979
0.53516
0.49023
0.5
0.49023
0.52979
0.55518
0.54492
0.5498
0.50977
0.52002
0.52979
0.51514
0.50488
0.52002
0.52002
0.54004
0.54492
0.53516
0.61475
0.52002
0.49512
0.5249
0.54492
0.56006
0.54004
0.56494
0.44482
0.19531
-0.064941
-0.12988
0.20996
0.4502
0.61475
0.66504
0.60498
0.59521
0.60986
0.58984
0.5752
0.56982
0.56494
0.60986
0.56494
0.5752
0.56006
0.60498
0.5752
0.59521
0.53516
0.56006
0.54492
0.49512
0.47021
0.5
0.4751
0.39502
0.39502
0.43506
0.39014
0.375
0.37012
0.4248
0.43994
0.4248
0.43506
0.44482
0.4248
0.46484
0.47021
0.48486
0.47021
0.4751
0.44482
0.51514
0.5
0.52979
0.52002
0.54004
0.50977
0.5249
0.5498
0.5249
0.50977
0.53516
0.55518
0.47021
0.48486
0.47998
0.5249
0.50977
0.49512
0.47998
0.5249
0.56494
0.56982
0.52979
0.56006
0.56494
0.51514
0.56494
0.5752
0.53516
0.54492
0.55518
0.53516
0.50488
0.52002
0.51514
0.5752
0.58984
0.52002
0.50977
0.56494
0.58008
0.54004
0.52002
0.55518
0.54004
0.56006
0.53516
0.54004
0.5249
0.5498
0.54004
0.55518
0.51514
0.5
0.5249
0.52002
0.5498
0.50977
0.51514
0.5498
0.52002
0.49023
0.5498
0.52979
0.54004
0.53516
0.54492
0.51514
0.52979
0.52002
0.54492
0.58008
0.5
0.30029
0.035156
-0.13965
-0.014648
0.35986
0.58008
0.63477
0.61475
0.625
0.60986
0.60498
0.60986
0.58984
0.58496
0.54004
0.53516
0.56982
0.56494
0.59521
0.58008
0.56006
0.5498
0.58496
0.53516
0.55518
0.56494
0.4751
0.40479
0.4248
0.39502
0.37988
0.375
0.41504
0.43018
0.35986
0.39502
0.4248
0.40479
0.39502
0.39014
0.45996
0.3999
0.38525
0.43506
0.4502
0.48486
0.45996
0.52002
0.5249
0.50488
0.47998
0.49023
0.52979
0.52979
0.5249
0.50488
0.54004
0.52002
0.54004
0.49023
0.50977
0.46484
0.50977
0.53516
0.47998
0.4751
0.5249
0.52002
0.54492
0.52979
0.56982
0.5249
0.54004
0.50488
0.5498
0.54004
0.51514
0.49512
0.56494
0.55518
0.56494
0.5249
0.47021
0.5498
0.59521
0.5498
0.5249
0.54004
0.54004
0.54004
0.55518
0.52979
0.52002
0.54492
0.58008
0.5249
0.50488
0.54004
0.56006
0.53516
0.49023
0.56006
0.51514
0.54492
0.5498
0.5249
0.51514
0.5249
0.51514
0.5249
0.52979
0.53516
0.52002
0.50977
0.51514
0.49512
0.52979
0.50488
0.52002
0.53516
0.48486
0.30029
0.035156
-0.14502
-0.014648
0.30029
0.5498
0.625
0.63477
0.61475
0.58496
0.58008
0.56982
0.56494
0.59521
0.52002
0.54004
0.54492
0.56982
0.59521
0.56494
0.54004
0.56006
0.52979
0.51514
0.50977
0.48486
0.5
0.45996
0.4502
0.38525
0.35986
0.36523
0.35498
0.375
0.36523
0.39014
0.33008
0.3999
0.45996
0.43506
0.45508
0.43994
0.49512
0.43994
0.49512
0.45996
0.44482
0.49023
0.52002
0.47998
0.4502
0.48486
0.5
0.52002
0.50977
0.54492
0.5498
0.56006
0.53516
0.5
0.4751
0.49512
0.51514
0.49512
0.4751
0.48486
0.47998
0.56982
0.58008
0.5249
0.50977
0.53516
0.54004
0.5498
0.5249
0.52002
0.5249
0.52979
0.56006
0.56494
0.54492
0.52002
0.55518
0.56494
0.5249
0.52979
0.47998
0.53516
0.55518
0.50977
0.55518
0.54492
0.56494
0.56982
0.54004
0.54004
0.53516
0.54004
0.49512
0.50488
0.54492
0.55518
0.54004
0.53516
0.50977
0.54004
0.51514
0.54004
0.50977
0.51514
0.5249
0.52002
0.53516
0.52002
0.56982
0.56006
0.47998
0.28516
-0.0097656
-0.13477
0.080078
0.3501
0.58496
0.62012
0.64502
0.58496
0.60986
0.56006
0.6001
0.6001
0.58984
0.58008
0.60498
0.60986
0.56982
0.56494
0.56982
0.54492
0.52979
0.54004
0.52979
0.50977
0.50488
0.45996
0.43506
0.47021
0.3999
0.38525
0.43506
0.37012
0.35498
0.41992
0.35498
0.37988
0.39014
0.41504
0.41992
0.41016
0.44482
0.46484
0.45996
0.47998
0.4502
0.50488
0.47998
0.50488
0.5
0.50488
0.46484
0.48486
0.52002
0.53516
0.54004
0.52002
0.52002
0.50488
0.49023
0.49512
0.56006
0.50488
0.49512
0.51514
0.5249
0.4751
0.46484
0.54004
0.59521
0.54004
0.54492
0.52002
0.6001
0.52979
0.5
0.54492
0.55518
0.51514
0.52002
0.5249
0.54004
0.51514
0.54492
0.56494
0.54004
0.53516
0.5249
0.52002
0.54004
0.54004
0.56006
0.5752
0.58984
0.52979
0.50977
0.54492
0.56006
0.4751
0.51514
0.5
0.4751
0.50488
0.52002
0.54004
0.56494
0.54004
0.58496
0.5249
0.52002
0.54492
0.54004
0.53516
0.52002
0.49512
0.47021
0.47998
0.49512
0.49512
0.52002
0.53516
0.4502
0.50977
0.5249
0.55518
0.53516
0.54492
0.43994
0.1499
-0.089844
-0.1499
0.19531
0.46484
0.60498
0.62988
0.56494
0.60498
0.5752
0.58984
0.56006
0.6001
0.60498
0.58008
0.59521
0.58984
0.56006
0.56494
0.54492
0.53516
0.56982
0.58984
0.54004
0.52002
0.49512
0.46484
0.43018
0.4502
0.45996
0.38525
0.37012
0.375
0.37988
0.375
0.41504
0.41504
0.40479
0.4751
0.43018
0.45508
0.47021
0.4248
0.44482
0.47998
0.49512
0.46484
0.49023
0.49512
0.53516
0.54004
0.51514
0.5249
0.50977
0.50977
0.52002
0.53516
0.54004
0.49512
0.5
0.49023
0.49512
0.47998
0.47021
0.5249
0.49512
0.50977
0.54492
0.54004
0.50977
0.50488
0.51514
0.55518
0.56006
0.51514
0.52002
0.49023
0.54004
0.54492
0.54004
0.53516
0.54004
0.48486
0.54004
0.5498
0.53516
0.5249
0.53516
0.5249
0.58984
0.54004
0.5249
0.56006
0.54004
0.49023
0.5249
0.5
0.49023
0.51514
0.54492
0.50488
0.49512
0.53516
0.5498
0.50977
0.54004
0.52002
0.54492
0.5498
0.52002
0.54004
0.56006
0.51514
0.3252
0.070313
-0.14502
-0.044922
0.30029
0.54492
0.62988
0.64014
0.60986
0.5752
0.55518
0.63477
0.64502
0.59521
0.6001
0.58008
0.5498
0.54004
0.56494
0.56006
0.56494
0.58984
0.5498
0.47021
0.4502
0.51514
0.5
0.49023
0.44482
0.41504
0.43018
0.41016
0.37012
0.36523
0.41504
0.40479
0.41016
0.37012
0.375
0.38525
0.375
0.4502
0.48486
0.46484
0.45996
0.49023
0.51514
0.54004
0.51514
0.54492
0.51514
0.51514
0.52002
0.54004
0.56006
0.47021
0.50488
0.51514
0.45508
0.50488
0.49023
0.47998
0.50488
0.51514
0.50488
0.56006
0.5752
0.58496
0.55518
0.58008
0.58496
0.52002
0.47998
0.52979
0.51514
0.49512
0.52979
0.56982
0.52002
0.51514
0.55518
0.54004
0.58984
0.46484
0.20996
-0.064941
-0.094727
0.2251
0.52002
0.64502
0.69482
0.58984
0.56494
0.60498
0.58984
0.58496
0.60986
0.61475
0.58008
0.58984
0.5752
0.5498
0.58008
0.56006
0.62012
0.55518
0.55518
0.54492
0.54492
0.49512
0.47998
0.48486
0.40479
0.35498
0.40479
0.41992
0.39502
0.38525
0.4248
0.41016
0.3999
0.44482
0.47998
0.43994
0.43506
0.4751
0.53516
0.50488
0.47021
0.5
0.54004
0.52002
0.48486
0.50488
0.54492
0.52979
0.52002
0.49023
0.50977
0.54004
0.50977
0.50488
0.54492
0.5
0.54492
0.49023
0.45996
0.50488
0.54004
0.51514
0.50977
0.54492
0.55518
0.50977
0.56006
0.53516
0.54492
0.55518
0.52002
0.56006
0.5249
0.52002
0.56494
0.51514
0.53516
0.5752
0.58496
0.55518
0.5
0.51514
0.50977
0.56494
0.56982
0.50977
0.54492
0.5498
0.5249
0.52979
0.52002
0.53516
0.56982
0.52002
0.50488
0.52002
0.52002
0.50488
0.5
0.55518
0.58984
0.52979
0.52002
0.51514
0.53516
0.51514
0.49512
0.53516
0.50977
0.54004
0.51514
0.52979
0.52002
0.53516
0.5
0.39014
0.10498
-0.13477
-0.16992
0.27002
0.50977
0.63477
0.60986
0.6001
0.61475
0.625
0.56982
0.54492
0.53516
0.56006
0.5498
0.50977
0.54492
0.55518
0.54004
0.56006
0.51514
0.53516
0.56494
0.52002
0.49512
0.49512
0.4502
0.4751
0.41504
0.35986
0.3501
0.34521
0.37988
0.3501
0.33496
0.37988
0.38525
0.37012
0.40479
0.43018
0.4248
0.38525
0.41504
0.44482
0.4502
0.5
0.52979
0.50488
0.4502
0.4751
0.47021
0.49512
0.47021
0.48486
0.51514
0.5
0.48486
0.49512
0.52979
0.49023
0.45996
0.51514
0.48486
0.49512
0.49023
0.50977
0.5498
0.5
0.48486
0.54004
0.51514
0.5
0.55518
0.50488
0.5249
0.50977
0.52002
0.5498
0.52002
0.54004
0.52002
0.54492
0.56494
0.60498
0.51514
0.25
-0.024902
-0.12988
0.18018
0.43506
0.60498
0.68018
0.66016
0.60986
0.5752
0.56006
0.58008
0.56494
0.58984
0.58008
0.60498
0.5752
0.60498
0.53516
0.60986
0.62012
0.56982
0.54492
0.52002
0.54004
0.49512
0.46484
0.4751
0.46484
0.41992
0.41016
0.3999
0.41016
0.35498
0.3999
0.41504
0.40479
0.45508
0.47021
0.48486
0.4502
0.43506
0.49023
0.50977
0.5249
0.52002
0.5249
0.50977
0.49512
0.48486
0.52002
0.54492
0.50488
0.50977
0.4751
0.50977
0.48486
0.50977
0.55518
0.52979
0.51514
0.52979
0.52002
0.5249
0.54004
0.56494
0.5
0.50488
0.54004
0.53516
0.5498
0.54492
0.56006
0.54004
0.54492
0.5498
0.53516
0.5498
0.56494
0.54492
0.56494
0.5752
0.55518
0.60498
0.56006
0.3501
0.055176
-0.13477
0.044922
0.375
0.5752
0.61475
0.6499
0.65479
0.6001
0.56494
0.56006
0.6001
0.62012
0.59521
0.56982
0.58496
0.61475
0.58496
0.6001
0.63477
0.58496
0.53516
0.54004
0.5249
0.49023
0.47021
0.49023
0.47998
0.4248
0.40479
0.41504
0.43506
0.38525
0.375
0.36523
0.38525
0.3999
0.43506
0.45508
0.4751
0.51514
0.51514
0.5249
0.54004
0.50488
0.49512
0.47998
0.48486
0.46484
0.47021
0.4502
0.5249
0.53516
0.47998
0.52979
0.56006
0.54004
0.54492
0.52002
0.53516
0.52979
0.54004
0.49512
0.55518
0.5498
0.54004
0.5
0.54492
0.52002
0.50977
0.56006
0.56494
0.52002
0.50977
0.53516
0.52979
0.58496
0.56982
0.58496
0.56982
0.56494
0.5249
0.55518
0.54492
0.5249
0.54492
0.5498
0.52002
0.56982
0.54004
0.5249
0.52979
0.55518
0.50977
0.55518
0.56982
0.54004
0.5498
0.49512
0.51514
0.54004
0.54492
0.51514
0.54492
0.56006
0.56006
0.54004
0.52979
0.54492
0.5249
0.52002
0.54004
0.4502
0.18018
-0.080078
-0.14502
0.14502
0.50488
0.64502
0.65479
0.63477
0.68018
0.62988
0.60986
0.58496
0.6001
0.62988
0.56494
0.55518
0.5752
0.58008
0.56494
0.56494
0.51514
0.5249
0.56006
0.49512
0.48486
0.50977
0.46484
0.4502
0.46484
0.45996
0.375
0.39014
0.37012
0.40479
0.37988
0.3999
0.41016
0.41504
0.38525
0.3999
0.375
0.39014
0.4248
0.45996
0.49512
0.50977
0.49023
0.50977
0.4751
0.46484
0.52979
0.53516
0.54492
0.49023
0.47998
0.5
0.45508
0.34521
0.24023
0.095215
-0.11475
-0.28467
-0.375
-0.3999
-0.32471
-0.22461
-0.11475
-0.084961
0.050293
0.22998
0.51514
0.76514
0.84473
0.85498
0.81494
0.85498
0.90479
0.92969
0.875
0.88477
0.93506
0.91992
0.86475
0.89502
0.875
0.87012
0.89014
0.875
0.87988
0.83984
0.85498
0.80469
0.81006
0.78516
0.73975
0.71973
0.7251
0.6748
0.65479
0.625
0.62988
0.54492
0.56006
0.51514
0.5249
0.47021
0.45996
0.44482
0.49512
0.50977
0.51514
0.49512
0.47998
0.50977
0.51514
0.49023
0.4502
0.46484
0.4502
0.44482
0.46484
0.48486
0.52002
0.4751
0.46484
0.49512
0.4751
0.52002
0.54004
0.49512
0.49512
0.49023
0.53516
0.55518
0.54004
0.51514
0.52002
0.50488
0.50977
0.52002
0.51514
0.5249
0.50488
0.50977
0.47021
0.5498
0.56006
0.47998
0.4751
0.5
0.52979
0.45996
0.45508
0.54004
0.56006
0.50977
0.54004
0.53516
0.5498
0.48486
0.47998
0.51514
0.52979
0.49512
0.50977
0.5
0.5249
0.54004
0.50488
0.45996
0.53516
0.49512
0.50977
0.52002
0.49023
0.47998
0.47998
0.49512
0.49023
0.50488
0.49023
0.51514
0.52002
0.50977
0.54004
0.5249
0.53516
0.50977
0.49023
0.4751
0.5498
0.47021
0.19531
-0.060059
-0.15967
0.13525
0.41992
0.56006
0.62988
0.64014
0.56982
0.58984
0.60498
0.56494
0.56982
0.60498
0.58984
0.56982
0.6001
0.56006
0.53516
0.5752
0.6001
0.5498
0.53516
0.54004
0.51514
0.4751
0.46484
0.43506
0.45508
0.41992
0.40479
0.39014
0.375
0.41016
0.35986
0.35986
0.37988
0.38525
0.35498
0.4502
0.40479
0.38525
0.41504
0.43506
0.41016
0.45508
0.49023
0.44482
0.47021
0.49023
0.45508
0.49512
0.50977
0.48486
0.49512
0.4502
0.53516
0.52002
0.52002
0.56006
0.50977
0.49512
0.51514
0.50488
0.53516
0.5
0.49023
0.50977
0.52002
0.50977
0.56494
0.54492
0.5498
0.48486
0.58496
0.58984
0.5249
0.5
0.52979
0.52002
0.53516
0.54004
0.56982
0.58496
0.56494
0.60498
0.64014
0.64502
0.31982
0.064941
-0.13965
0.055176
0.31982
0.56006
0.66016
0.6748
0.62012
0.58984
0.58984
0.625
0.625
0.63477
0.6001
0.56982
0.60986
0.6001
0.58984
0.58984
0.56982
0.5249
0.51514
0.58008
0.52002
0.47998
0.49512
0.47021
0.47998
0.41992
0.41504
0.43018
0.3999
0.39502
0.43506
0.41992
0.43994
0.4248
0.45508
0.44482
0.41504
0.44482
0.47021
0.5
0.50977
0.47021
0.47021
0.49512
0.51514
0.5249
0.49023
0.52979
0.53516
0.54004
0.52979
0.54004
0.5
0.5249
0.54004
0.5249
0.5
0.46484
0.48486
0.50977
0.54492
0.5498
0.52979
0.52002
0.58496
0.55518
0.51514
0.50488
0.53516
0.50977
0.5752
0.56494
0.55518
0.56006
0.56494
0.54492
0.60986
0.54004
0.3501
0.080078
-0.064941
0.080078
0.33008
0.56494
0.66016
0.66992
0.62988
0.63477
0.5752
0.55518
0.56982
0.58496
0.56494
0.54004
0.58496
0.62012
0.59521
0.63477
0.64014
0.58984
0.56494
0.58984
0.50488
0.4751
0.47998
0.45996
0.46484
0.44482
0.40479
0.37012
0.41992
0.41504
0.38525
0.37988
0.4248
0.41992
0.44482
0.4248
0.5
0.48486
0.47021
0.49023
0.50977
0.4751
0.5498
0.56494
0.50977
0.47021
0.54492
0.49512
0.46484
0.47021
0.5249
0.53516
0.50977
0.50977
0.52002
0.52979
0.5249
0.49512
0.51514
0.50488
0.53516
0.54004
0.54492
0.54004
0.54004
0.60498
0.56006
0.51514
0.53516
0.56982
0.56006
0.52979
0.51514
0.54004
0.5498
0.50488
0.52979
0.56494
0.60498
0.5498
0.5752
0.52002
0.5249
0.52002
0.5249
0.56006
0.56494
0.52002
0.52979
0.51514
0.52979
0.51514
0.53516
0.5498
0.5249
0.5498
0.55518
0.52979
0.56982
0.55518
0.53516
0.52002
0.52002
0.51514
0.54004
0.50977
0.54004
0.5498
0.49023
0.50977
0.54492
0.52979
0.47998
0.47021
0.50977
0.56982
0.52979
0.50977
0.5249
0.54004
0.52002
0.48486
0.54492
0.56006
0.5
0.47998
0.49512
0.49512
0.49023
0.52002
0.52979
0.49023
0.47998
0.53516
0.52979
0.52002
0.50488
0.51514
0.52979
0.49512
0.51514
0.49023
0.54492
0.5249
0.56006
0.29492
0.064941
-0.11475
-0.1499
0.27002
0.5249
0.62012
0.60986
0.63477
0.61475
0.5752
0.56006
0.58496
0.58984
0.56982
0.58984
0.59521
0.56982
0.58984
0.5498
0.56982
0.56494
0.54004
0.49023
0.5249
0.50977
0.49023
0.4751
0.45508
0.39502
0.41992
0.41016
0.3999
0.35986
0.35498
0.37988
0.41504
0.37988
0.39014
0.3999
0.38525
0.3999
0.39502
0.43506
0.43018
0.4248
0.47021
0.4751
0.44482
0.49512
0.52002
0.53516
0.52002
0.5
0.4751
0.49023
0.50488
0.51514
0.48486
0.49512
0.5249
0.54004
0.49512
0.49023
0.5249
0.50488
0.47021
0.46484
0.51514
0.53516
0.54004
0.52979
0.56494
0.56982
0.56006
0.50488
0.55518
0.54492
0.56982
0.50977
0.50977
0.5
0.54492
0.54004
0.5752
0.52979
0.30518
0.024902
-0.10986
0.11523
0.3999
0.56982
0.625
0.64014
0.62012
0.64502
0.59521
0.58008
0.56494
0.58984
0.56494
0.58984
0.60986
0.58984
0.5249
0.54492
0.56006
0.59521
0.55518
0.54492
0.55518
0.49023
0.45996
0.45508
0.43018
0.41016
0.38525
0.37012
0.38525
0.375
0.375
0.38525
0.43018
0.41992
0.46484
0.4502
0.5
0.5249
0.51514
0.5249
0.46484
0.49512
0.47998
0.5249
0.47021
0.46484
0.5
0.51514
0.52002
0.5249
0.4751
0.54004
0.51514
0.55518
0.54004
0.5
0.47998
0.54492
0.5
0.50977
0.48486
0.51514
0.50977
0.50488
0.56494
0.52979
0.52002
0.56006
0.56494
0.56982
0.53516
0.58984
0.5498
0.53516
0.53516
0.54492
0.5498
0.56494
0.50977
0.49512
0.5249
0.5498
0.56494
0.58008
0.54004
0.52979
0.56006
0.50488
0.54004
0.6001
0.60498
0.41504
0.1499
-0.064941
-0.125
0.22021
0.49023
0.62012
0.61475
0.6001
0.58496
0.60986
0.58496
0.66016
0.56006
0.55518
0.59521
0.60498
0.6001
0.60498
0.58984
0.56006
0.5249
0.54004
0.5249
0.53516
0.50488
0.47021
0.45996
0.48486
0.45996
0.39502
0.41992
0.41016
0.38525
0.39502
0.41016
0.38525
0.41504
0.4502
0.41016
0.44482
0.4502
0.43994
0.43018
0.4502
0.50488
0.52979
0.44482
0.43994
0.54004
0.5498
0.50977
0.4751
0.5498
0.56494
0.5249
0.47021
0.52002
0.52002
0.47021
0.49512
0.5
0.50977
0.51514
0.49023
0.52979
0.56494
0.54492
0.54004
0.52002
0.52979
0.58984
0.5752
0.51514
0.50977
0.52002
0.51514
0.54004
0.55518
0.52002
0.50977
0.54004
0.56982
0.54004
0.56494
0.50977
0.56006
0.56982
0.54492
0.52979
0.56006
0.52979
0.54492
0.55518
0.58008
0.53516
0.52979
0.49512
0.51514
0.54004
0.52002
0.5
0.49512
0.54492
0.54004
0.53516
0.55518
0.53516
0.52002
0.54004
0.52002
0.54004
0.5
0.5249
0.48486
0.49512
0.52002
0.54004
0.56494
0.50977
0.29004
0.010254
-0.15479
0.024902
0.36523
0.56006
0.625
0.62988
0.58984
0.58008
0.61475
0.6001
0.6001
0.5498
0.56982
0.55518
0.59521
0.54492
0.5249
0.58496
0.56006
0.5498
0.53516
0.54004
0.47021
0.4751
0.5
0.46484
0.43994
0.40479
0.44482
0.46484
0.38525
0.3999
0.40479
0.3501
0.33496
0.37988
0.375
0.43506
0.4248
0.43994
0.44482
0.4502
0.44482
0.47998
0.49512
0.49512
0.52979
0.51514
0.49512
0.47998
0.50488
0.52002
0.50488
0.4751
0.47998
0.52002
0.53516
0.46484
0.5249
0.46484
0.43994
0.52002
0.5
0.52002
0.54004
0.52979
0.5498
0.5
0.49512
0.5249
0.50977
0.5249
0.54004
0.54492
0.51514
0.55518
0.56494
0.52979
0.52002
0.54004
0.50488
0.54492
0.53516
0.50488
0.47998
0.5
0.47021
0.52002
0.54004
0.54492
0.26514
0.080078
-0.11963
-0.12988
0.33008
0.54492
0.62988
0.62988
0.58496
0.5752
0.625
0.5498
0.53516
0.55518
0.56006
0.56006
0.56982
0.53516
0.58984
0.59521
0.54492
0.58008
0.53516
0.52002
0.51514
0.48486
0.46484
0.41992
0.38525
0.375
0.43018
0.44482
0.37012
0.35986
0.40479
0.41992
0.38525
0.41992
0.3999
0.41016
0.43018
0.47021
0.45508
0.44482
0.49023
0.46484
0.5
0.54492
0.56006
0.5
0.46484
0.52002
0.54492
0.51514
0.49512
0.52002
0.5
0.49023
0.4751
0.50488
0.54004
0.50977
0.47998
0.49512
0.5498
0.55518
0.50977
0.50488
0.58496
0.56982
0.56494
0.53516
0.52002
0.54004
0.53516
0.56982
0.56006
0.52979
0.5249
0.51514
0.53516
0.56494
0.58496
0.59521
0.43018
0.14502
-0.084961
0
0.28027
0.5249
0.62988
0.65479
0.63477
0.62012
0.60498
0.60498
0.58984
0.60986
0.61475
0.58008
0.59521
0.60986
0.59521
0.58496
0.55518
0.56494
0.56982
0.53516
0.54492
0.52979
0.50488
0.4751
0.47998
0.44482
0.43506
0.41504
0.40479
0.41504
0.39014
0.41016
0.3999
0.43018
0.43994
0.41992
0.41504
0.48486
0.4502
0.47998
0.52979
0.56006
0.51514
0.49512
0.50488
0.47998
0.52002
0.5249
0.49512
0.52979
0.5
0.46484
0.48486
0.52979
0.54004
0.52002
0.52002
0.51514
0.49023
0.47998
0.5249
0.54004
0.54004
0.55518
0.5498
0.58984
0.56494
0.54492
0.52002
0.55518
0.53516
0.52979
0.58496
0.54492
0.30029
0.024902
-0.089844
0.11523
0.40479
0.6001
0.66016
0.63477
0.65479
0.62988
0.60498
0.59521
0.60986
0.58984
0.56982
0.60986
0.56982
0.59521
0.64502
0.59521
0.54492
0.56494
0.56006
0.58496
0.54004
0.5249
0.51514
0.47021
0.45996
0.4502
0.4248
0.43018
0.39014
0.38525
0.43994
0.4502
0.37012
0.41992
0.47021
0.47998
0.4751
0.5
0.49512
0.52979
0.5
0.50977
0.51514
0.5
0.47021
0.50488
0.52002
0.52002
0.51514
0.5
0.52002
0.51514
0.53516
0.49023
0.48486
0.5249
0.53516
0.49512
0.53516
0.5498
0.56494
0.5249
0.55518
0.54004
0.56006
0.54004
0.54004
0.54492
0.56006
0.56494
0.52002
0.5752
0.56494
0.58496
0.56982
0.58496
0.58496
0.6001
0.60498
0.47021
0.22998
0
-0.069824
0.2251
0.44482
0.59521
0.63477
0.60986
0.6001
0.64502
0.6001
0.58984
0.60498
0.6001
0.58496
0.58496
0.5752
0.58496
0.56006
0.5752
0.51514
0.50977
0.5249
0.54004
0.52002
0.48486
0.49023
0.44482
0.4248
0.3999
0.38525
0.41992
0.39014
0.41504
0.4248
0.43018
0.41504
0.41016
0.43018
0.43994
0.44482
0.46484
0.48486
0.49023
0.45996
0.4248
0.4751
0.5249
0.54004
0.49023
0.5
0.52002
0.5
0.54004
0.50977
0.49512
0.52979
0.55518
0.49023
0.45996
0.52979
0.49023
0.49512
0.49512
0.49023
0.56006
0.52002
0.50977
0.54004
0.55518
0.60986
0.5752
0.56494
0.51514
0.50977
0.56006
0.52002
0.50977
0.5498
0.49512
0.51514
0.53516
0.5498
0.53516
0.56494
0.52979
0.48486
0.53516
0.58496
0.60986
0.31006
0.044922
-0.14502
0.060059
0.35498
0.56006
0.65479
0.66016
0.59521
0.61475
0.58008
0.58496
0.56982
0.62988
0.58984
0.5752
0.56494
0.61475
0.56494
0.58496
0.61475
0.53516
0.52002
0.54004
0.56006
0.54492
0.50488
0.46484
0.4751
0.43506
0.43018
0.40479
0.4248
0.4502
0.39502
0.39014
0.44482
0.41504
0.41504
0.45996
0.45508
0.45996
0.4502
0.49512
0.50488
0.54004
0.47021
0.46484
0.52002
0.49512
0.52002
0.55518
0.56006
0.41504
0.48486
0.52002
0.49023
0.51514
0.52002
0.48486
0.51514
0.55518
0.5249
0.49023
0.47998
0.5498
0.56494
0.50488
0.52979
0.5498
0.50488
0.52002
0.5752
0.55518
0.60986
0.62988
0.41992
0.17529
-0.089844
-0.10498
0.3501
0.52979
0.5752
0.60498
0.63477
0.58496
0.625
0.60498
0.60986
0.59521
0.60498
0.58984
0.62988
0.59521
0.64014
0.58008
0.58496
0.55518
0.5752
0.58008
0.56006
0.5249
0.44482
0.48486
0.49512
0.44482
0.3999
0.38525
0.43506
0.4502
0.43506
0.4248
0.4751
0.47998
0.45508
0.45996
0.43506
0.46484
0.47021
0.4751
0.49512
0.48486
0.5
0.53516
0.56006
0.54492
0.4751
0.5249
0.53516
0.48486
0.45508
0.44482
0.5
0.5249
0.52002
0.54004
0.5498
0.55518
0.52002
0.52979
0.52979
0.5249
0.50977
0.54004
0.52979
0.5498
0.58984
0.56006
0.53516
0.52979
0.54492
0.56006
0.53516
0.55518
0.5249
0.52002
0.56006
0.56494
0.54004
0.5752
0.55518
0.54492
0.58008
0.56494
0.54004
0.41016
0.16504
-0.064941
-0.125
0.26025
0.50488
0.66992
0.68018
0.58984
0.61475
0.58008
0.56494
0.60498
0.58496
0.64502
0.60986
0.6001
0.60498
0.59521
0.5752
0.54492
0.56982
0.54492
0.49512
0.47021
0.5
0.46484
0.49512
0.47998
0.4751
0.43018
0.39502
0.43994
0.41016
0.43018
0.4502
0.3999
0.4248
0.40479
0.43018
0.4502
0.44482
0.47021
0.43994
0.46484
0.45996
0.5
0.50977
0.47998
0.50977
0.54004
0.49512
0.47998
0.47021
0.50488
0.52979
0.51514
0.4751
0.50977
0.45508
0.46484
0.49023
0.51514
0.50977
0.53516
0.5498
0.5
0.53516
0.49512
0.50977
0.51514
0.49023
0.53516
0.51514
0.49023
0.50977
0.50488
0.5249
0.52002
0.58496
0.56006
0.54004
0.52979
0.56494
0.52002
0.5
0.51514
0.5
0.54004
0.52002
0.5
0.5249
0.53516
0.47021
0.49023
0.51514
0.52979
0.54004
0.52002
0.48486
0.50977
0.52002
0.49512
0.54492
0.54004
0.55518
0.49512
0.48486
0.49512
0.5
0.5249
0.53516
0.56982
0.35498
0.090332
-0.12988
-0.15967
0.22021
0.52979
0.62012
0.62988
0.61475
0.62012
0.60498
0.58984
0.6001
0.61475
0.55518
0.52002
0.53516
0.55518
0.56982
0.54004
0.58984
0.58008
0.56006
0.56006
0.53516
0.48486
0.5
0.45508
0.41016
0.4502
0.41992
0.41992
0.35498
0.40479
0.4248
0.3999
0.41016
0.38525
0.3999
0.43018
0.45996
0.43506
0.41504
0.45996
0.4502
0.48486
0.50977
0.49023
0.52002
0.5
0.52979
0.47021
0.49512
0.5
0.49512
0.49512
0.47998
0.50977
0.48486
0.52002
0.5
0.56006
0.5249
0.52002
0.53516
0.50488
0.52002
0.53516
0.55518
0.50488
0.49512
0.60986
0.62988
0.41016
0.1499
-0.044922
-0.069824
0.3501
0.56982
0.64014
0.6499
0.625
0.60986
0.64502
0.56006
0.60986
0.63477
0.58984
0.58496
0.58984
0.58984
0.58496
0.58984
0.54004
0.56494
0.54492
0.52002
0.5498
0.52002
0.5
0.47998
0.49512
0.4248
0.45508
0.46484
0.38525
0.41016
0.375
0.41992
0.44482
0.45996
0.3999
0.46484
0.4751
0.50488
0.56006
0.48486
0.47021
0.46484
0.48486
0.53516
0.54004
0.50488
0.52979
0.47021
0.52002
0.5498
0.51514
0.50977
0.52002
0.46484
0.49512
0.50977
0.47021
0.53516
0.54004
0.52002
0.55518
0.54492
0.53516
0.56494
0.58496
0.54004
0.55518
0.52002
0.5249
0.52002
0.54004
0.5249
0.52002
0.54492
0.52979
0.54004
0.53516
0.625
0.64502
0.41992
0.12988
-0.089844
-0.11475
0.28516
0.51514
0.60986
0.59521
0.60986
0.62012
0.60498
0.60986
0.61475
0.56982
0.62988
0.60986
0.58008
0.58984
0.56494
0.60498
0.58984
0.58496
0.5249
0.5498
0.56006
0.5249
0.50977
0.45996
0.43994
0.44482
0.41992
0.3999
0.4248
0.39014
0.41016
0.4502
0.43994
0.46484
0.37988
0.4248
0.49512
0.47021
0.4248
0.50488
0.4751
0.4502
0.50488
0.52002
0.5
0.48486
0.47998
0.52002
0.5249
0.45508
0.44482
0.56982
0.5752
0.51514
0.5249
0.49023
0.51514
0.45508
0.49512
0.5249
0.53516
0.52002
0.5249
0.5
0.58008
0.54004
0.53516
0.56982
0.53516
0.49512
0.53516
0.54492
0.5498
0.52002
0.5498
0.56494
0.50977
0.53516
0.4751
0.47021
0.58496
0.53516
0.51514
0.53516
0.55518
0.5752
0.45508
0.18018
-0.02002
-0.10498
0.21484
0.4248
0.58496
0.625
0.58496
0.55518
0.5752
0.56982
0.62988
0.58496
0.56494
0.63477
0.6001
0.56006
0.56494
0.60986
0.56982
0.54492
0.56494
0.50977
0.53516
0.5
0.48486
0.52002
0.5
0.41016
0.3999
0.375
0.4248
0.43506
0.4248
0.43994
0.3999
0.39014
0.43994
0.47021
0.43506
0.44482
0.47998
0.5
0.4502
0.43994
0.49512
0.49023
0.47998
0.51514
0.55518
0.54004
0.48486
0.45996
0.45508
0.5249
0.52979
0.52002
0.48486
0.46484
0.5249
0.50977
0.49023
0.4751
0.5249
0.51514
0.55518
0.54004
0.5249
0.51514
0.49512
0.53516
0.56982
0.53516
0.53516
0.51514
0.49023
0.5249
0.53516
0.56494
0.54492
0.58496
0.54004
0.5498
0.58496
0.55518
0.52979
0.54004
0.5249
0.50977
0.5249
0.52002
0.5249
0.54004
0.52002
0.52979
0.54004
0.6001
0.56006
0.41504
0.12988
-0.094727
-0.15479
0.28027
0.51514
0.64502
0.66016
0.625
0.60986
0.59521
0.58984
0.625
0.5752
0.5752
0.5498
0.54004
0.56982
0.58008
0.60986
0.56494
0.54492
0.56494
0.55518
0.56494
0.50488
0.44482
0.4502
0.46484
0.41504
0.37988
0.41016
0.41992
0.37012
0.375
0.37012
0.36523
0.40479
0.44482
0.4502
0.43506
0.4502
0.3999
0.44482
0.47998
0.4502
0.43994
0.43018
0.47021
0.49512
0.51514
0.5
0.48486
0.49023
0.47998
0.53516
0.49512
0.49512
0.47021
0.47021
0.49023
0.52002
0.54004
0.50977
0.49023
0.53516
0.54004
0.52979
0.50488
0.52002
0.54004
0.52002
0.49512
0.58496
0.54004
0.5249
0.54004
0.56494
0.54004
0.52979
0.52002
0.56494
0.56006
0.54004
0.58496
0.58984
0.5498
0.54004
0.53516
0.58496
0.50488
0.49023
0.5249
0.58008
0.61475
0.49023
0.26514
0.02002
-0.15967
0.015137
0.34521
0.60498
0.66992
0.62012
0.60986
0.5752
0.56494
0.60498
0.60986
0.58008
0.56494
0.58496
0.5752
0.60498
0.5752
0.58008
0.58984
0.56006
0.53516
0.55518
0.56982
0.49023
0.44482
0.45996
0.4248
0.44482
0.41992
0.3999
0.41992
0.37012
0.375
0.39502
0.41992
0.43994
0.43018
0.47998
0.4502
0.41992
0.47998
0.45508
0.48486
0.47021
0.49512
0.46484
0.47998
0.5
0.51514
0.56494
0.54004
0.5
0.51514
0.54492
0.55518
0.50977
0.5249
0.46484
0.5249
0.49023
0.51514
0.54004
0.54492
0.49512
0.52979
0.56494
0.55518
0.5
0.4751
0.5
0.5498
0.56006
0.52002
0.5498
0.52002
0.56006
0.59521
0.55518
0.31494
0.075195
-0.14502
0.075195
0.4248
0.5752
0.62988
0.63477
0.56982
0.60986
0.65479
0.60498
0.5498
0.56982
0.58496
0.56982
0.58008
0.54492
0.53516
0.6001
0.5498
0.58008
0.59521
0.52002
0.54004
0.5
0.49512
0.47021
0.41992
0.41016
0.4248
0.3999
0.40479
0.41504
0.35986
0.35498
0.45996
0.48486
0.43994
0.49512
0.44482
0.45508
0.4751
0.52002
0.52979
0.49023
0.47998
0.50977
0.47021
0.51514
0.56494
0.53516
0.50977
0.5249
0.5
0.48486
0.47021
0.5
0.5
0.52002
0.5
0.50977
0.54004
0.56494
0.58008
0.58496
0.5498
0.54004
0.50488
0.5249
0.55518
0.56006
0.5249
0.52979
0.58008
0.58496
0.53516
0.56006
0.6001
0.5752
0.58008
0.54004
0.5498
0.50977
0.55518
0.56006
0.5498
0.52979
0.50977
0.56494
0.56982
0.5498
0.54004
0.58008
0.56006
0.5498
0.52002
0.53516
0.51514
0.54004
0.49512
0.54004
0.56006
0.53516
0.53516
0.52002
0.58496
0.56982
0.51514
0.33984
0.084961
-0.14502
-0.0097656
0.3501
0.55518
0.66016
0.68018
0.62988
0.59521
0.60498
0.58984
0.59521
0.53516
0.6001
0.58496
0.60986
0.63477
0.58984
0.55518
0.54492
0.54492
0.53516
0.5498
0.50977
0.45996
0.46484
0.49512
0.5
0.44482
0.45508
0.3999
0.375
0.3999
0.36523
0.35498
0.3501
0.41016
0.41992
0.40479
0.3999
0.4248
0.41992
0.41016
0.45508
0.47998
0.50488
0.48486
0.47021
0.46484
0.50488
0.49512
0.52002
0.5249
0.47998
0.47021
0.5
0.45508
0.50488
0.49512
0.50977
0.49512
0.51514
0.54492
0.5498
0.5249
0.55518
0.52002
0.52979
0.52002
0.56006
0.51514
0.5498
0.56982
0.52979
0.5498
0.52002
0.50488
0.50977
0.56006
0.56982
0.54004
0.52002
0.54492
0.55518
0.52979
0.56006
0.58984
0.52002
0.58984
0.56006
0.55518
0.54492
0.5249
0.52979
0.49512
0.54492
0.56494
0.51514
0.54492
0.54004
0.51514
0.52979
0.55518
0.53516
0.55518
0.5249
0.49023
0.54004
0.49512
0.54004
0.56982
0.50488
0.33008
0.050293
-0.13965
-0.1499
0.31006
0.5752
0.68018
0.68994
0.61475
0.60986
0.62988
0.63477
0.59521
0.5498
0.5752
0.56006
0.5752
0.6001
0.54004
0.56006
0.56494
0.60498
0.58008
0.58496
0.56006
0.53516
0.49023
0.43506
0.41016
0.43018
0.40479
0.41504
0.33008
0.38525
0.4248
0.43506
0.41016
0.4248
0.39502
0.44482
0.45996
0.4502
0.43994
0.46484
0.44482
0.43994
0.50488
0.51514
0.49023
0.47021
0.4751
0.49512
0.52002
0.50488
0.5
0.50488
0.45508
0.52002
0.50977
0.52979
0.56006
0.5498
0.5249
0.47998
0.47021
0.48486
0.5
0.53516
0.55518
0.50977
0.49512
0.5752
0.5498
0.5249
0.54492
0.5752
0.5249
0.49512
0.54004
0.53516
0.60986
0.56982
0.41992
0.14502
-0.089844
-0.094727
0.22021
0.50488
0.58496
0.60986
0.59521
0.63477
0.59521
0.58984
0.58984
0.6001
0.62988
0.59521
0.60498
0.54492
0.59521
0.58008
0.53516
0.58496
0.58008
0.51514
0.49023
0.47021
0.52002
0.46484
0.45996
0.44482
0.41504
0.4502
0.4751
0.41504
0.37988
0.375
0.41504
0.41016
0.4502
0.44482
0.45508
0.43994
0.50488
0.54492
0.47021
0.4751
0.50488
0.5249
0.49023
0.50488
0.5
0.54004
0.50977
0.50488
0.51514
0.50488
0.51514
0.52979
0.54004
0.49512
0.52002
0.53516
0.49512
0.5
0.56494
0.55518
0.53516
0.54004
0.55518
0.5249
0.51514
0.54492
0.56006
0.48486
0.5249
0.5498
0.55518
0.53516
0.62012
0.62988
0.51514
0.27002
0.024902
-0.10986
0.10986
0.38525
0.55518
0.62012
0.64502
0.62988
0.63477
0.62012
0.62988
0.58984
0.6001
0.54492
0.54004
0.55518
0.5498
0.56982
0.56494
0.60498
0.58496
0.56982
0.5498
0.54004
0.5249
0.49512
0.46484
0.47021
0.4248
0.41992
0.43506
0.39502
0.39502
0.41016
0.39502
0.43018
0.4248
0.45508
0.44482
0.48486
0.49512
0.5498
0.4751
0.50977
0.52002
0.47021
0.48486
0.4751
0.48486
0.47021
0.50977
0.50488
0.52002
0.52979
0.49512
0.53516
0.51514
0.49512
0.5
0.48486
0.52002
0.51514
0.55518
0.5752
0.52979
0.56494
0.5249
0.49023
0.56494
0.54004
0.52979
0.58008
0.56494
0.52979
0.52002
0.5
0.5249
0.56494
0.54492
0.52002
0.5498
0.58496
0.54004
0.54492
0.5752
0.56494
0.54004
0.5752
0.51514
0.36523
0.084961
-0.11963
-0.13477
0.30029
0.56006
0.65479
0.66992
0.62012
0.56982
0.62012
0.62988
0.60498
0.63477
0.58008
0.56494
0.60986
0.60986
0.58984
0.60498
0.5752
0.58008
0.54492
0.52002
0.5249
0.49512
0.5249
0.49512
0.48486
0.49512
0.43506
0.44482
0.45996
0.4248
0.39014
0.3999
0.39502
0.3999
0.4502
0.46484
0.45508
0.48486
0.49512
0.5
0.49023
0.50977
0.5249
0.49512
0.51514
0.49512
0.49023
0.54004
0.50977
0.47021
0.54004
0.51514
0.4751
0.50977
0.54004
0.54492
0.4751
0.5249
0.5498
0.54004
0.56006
0.5498
0.50488
0.56006
0.56494
0.54004
0.52002
0.54492
0.5498
0.52979
0.56982
0.52979
0.50977
0.56006
0.58984
0.5752
0.53516
0.51514
0.56494
0.56494
0.56982
0.60986
0.54004
0.29492
-0.02002
-0.20996
0.090332
0.4248
0.6001
0.64014
0.62012
0.58496
0.58008
0.62012
0.63477
0.59521
0.6001
0.58008
0.5498
0.5752
0.61475
0.55518
0.58496
0.58984
0.52979
0.50977
0.55518
0.52002
0.50488
0.50977
0.44482
0.43994
0.41992
0.41504
0.38525
0.36523
0.39502
0.4248
0.41016
0.43994
0.40479
0.41992
0.41016
0.43018
0.4502
0.49512
0.49023
0.50977
0.53516
0.5
0.52979
0.49023
0.5249
0.47998
0.5
0.52002
0.52979
0.47021
0.50488
0.52002
0.50488
0.48486
0.50977
0.46484
0.4751
0.5498
0.56494
0.54004
0.54004
0.5
0.53516
0.56006
0.53516
0.55518
0.53516
0.54004
0.52002
0.50488
0.5498
0.51514
0.5249
0.52002
0.55518
0.58496
0.4502
0.2002
-0.029785
-0.074707
0.19531
0.4502
0.63477
0.68018
0.64502
0.62988
0.6001
0.58984
0.60986
0.61475
0.58984
0.59521
0.55518
0.6001
0.56494
0.55518
0.58496
0.5752
0.54004
0.5498
0.53516
0.54004
0.50488
0.52002
0.46484
0.44482
0.41992
0.3999
0.38525
0.41992
0.46484
0.43506
0.40479
0.43994
0.43506
0.4248
0.43994
0.4502
0.43994
0.4751
0.47021
0.4502
0.54492
0.5498
0.4751
0.49512
0.4751
0.47021
0.50488
0.51514
0.52002
0.46484
0.44482
0.53516
0.56982
0.5
0.47021
0.49512
0.47998
0.5249
0.54492
0.56006
0.54004
0.51514
0.56494
0.58984
0.54492
0.54004
0.55518
0.56494
0.52002
0.50488
0.5498
0.53516
0.54492
0.5249
0.51514
0.5752
0.5249
0.52002
0.53516
0.54492
0.5249
0.56494
0.5498
0.53516
0.52002
0.52979
0.58008
0.58496
0.54004
0.52002
0.52002
0.52002
0.49512
0.49023
0.52979
0.50488
0.5
0.56006
0.50488
0.2749
-0.0097656
-0.089844
0.125
0.4502
0.6001
0.64014
0.62012
0.6001
0.56982
0.58984
0.58984
0.56494
0.5498
0.58984
0.52979
0.58496
0.60498
0.62012
0.62988
0.58496
0.5498
0.54004
0.54492
0.50977
0.49023
0.47021
0.47998
0.39502
0.44482
0.41016
0.39502
0.43506
0.375
0.37012
0.35986
0.35498
0.375
0.38525
0.43994
0.45996
0.47998
0.44482
0.4751
0.52002
0.49512
0.49512
0.50977
0.49512
0.47998
0.5
0.50977
0.5
0.49512
0.45996
0.50977
0.54004
0.47021
0.49023
0.47998
0.50488
0.51514
0.49512
0.52979
0.5249
0.56494
0.54004
0.5498
0.53516
0.51514
0.5249
0.52002
0.54492
0.56494
0.54004
0.52002
0.5249
0.5
0.49512
0.56982
0.55518
0.58008
0.53516
0.52979
0.5752
0.58984
0.58984
0.54492
0.3501
0.064941
-0.10986
-0.12988
0.33496
0.51514
0.63477
0.6001
0.54004
0.58496
0.60498
0.58496
0.59521
0.56494
0.61475
0.60498
0.625
0.63477
0.5498
0.56494
0.5498
0.58984
0.55518
0.51514
0.5
0.47998
0.45996
0.44482
0.45996
0.4248
0.43018
0.39502
0.3999
0.38525
0.375
0.41016
0.4502
0.47021
0.41992
0.44482
0.49023
0.47998
0.50488
0.4751
0.43994
0.49023
0.50977
0.52002
0.49512
0.52979
0.53516
0.50977
0.50488
0.54004
0.52002
0.4751
0.5
0.48486
0.52979
0.52002
0.54004
0.51514
0.50488
0.5249
0.51514
0.5498
0.54004
0.52979
0.52979
0.52002
0.52002
0.55518
0.5752
0.52979
0.58496
0.58008
0.58984
0.31494
0.084961
-0.089844
0.12988
0.41504
0.56006
0.60498
0.61475
0.62988
0.625
0.60986
0.56494
0.60498
0.61475
0.56982
0.58984
0.60498
0.56006
0.58496
0.59521
0.56494
0.55518
0.55518
0.54492
0.52002
0.53516
0.4751
0.4502
0.48486
0.43506
0.41504
0.45996
0.3999
0.38525
0.41016
0.4248
0.43506
0.41992
0.41016
0.4248
0.45996
0.49512
0.5
0.5498
0.4751
0.49512
0.46484
0.52979
0.50977
0.5249
0.50488
0.5
0.52002
0.49512
0.5
0.49023
0.51514
0.48486
0.4751
0.43994
0.5
0.55518
0.56494
0.5498
0.51514
0.53516
0.56494
0.5498
0.55518
0.52002
0.53516
0.50977
0.54004
0.56006
0.52002
0.50977
0.53516
0.50488
0.56982
0.55518
0.54004
0.58008
0.56494
0.56982
0.55518
0.53516
0.52002
0.56494
0.5249
0.52002
0.5249
0.49512
0.5249
0.53516
0.52002
0.52002
0.50977
0.56982
0.52979
0.50488
0.55518
0.52979
0.56006
0.52979
0.54004
0.47998
0.46484
0.54492
0.52002
0.51514
0.50977
0.52002
0.5249
0.4751
0.51514
0.53516
0.50488
0.51514
0.50488
0.52979
0.58008
0.5498
0.39014
0.1001
-0.11963
-0.1499
0.25
0.51514
0.6499
0.66016
0.58496
0.58008
0.5752
0.60986
0.63477
0.5498
0.56494
0.58496
0.5752
0.52979
0.52002
0.5752
0.59521
0.60498
0.56494
0.5752
0.50977
0.55518
0.50977
0.5
0.45508
0.43018
0.3999
0.375
0.36523
0.3999
0.38525
0.37012
0.43018
0.41016
0.4248
0.39502
0.43994
0.43506
0.45508
0.44482
0.47998
0.50977
0.45508
0.43018
0.52002
0.5
0.4751
0.49023
0.47998
0.49512
0.48486
0.5249
0.52002
0.53516
0.50488
0.51514
0.4502
0.5249
0.49023
0.48486
0.51514
0.50977
0.52979
0.54492
0.5
0.54004
0.52002
0.52979
0.5249
0.50488
0.56006
0.58008
0.58984
0.5498
0.50977
0.53516
0.58984
0.5752
0.58984
0.53516
0.50977
0.50488
0.54004
0.6001
0.53516
0.31494
0.060059
-0.11475
0.02002
0.33984
0.58496
0.66504
0.6748
0.58496
0.62012
0.625
0.59521
0.625
0.58496
0.625
0.55518
0.52979
0.5498
0.58496
0.58984
0.5498
0.54492
0.51514
0.54492
0.56006
0.49512
0.49023
0.49512
0.43994
0.3999
0.39014
0.39502
0.35498
0.36523
0.37012
0.35498
0.40479
0.3999
0.43018
0.44482
0.41504
0.47021
0.52002
0.54004
0.47998
0.4751
0.49512
0.46484
0.48486
0.49512
0.49023
0.50977
0.4751
0.48486
0.49512
0.46484
0.52002
0.5752
0.53516
0.47021
0.47021
0.52002
0.5249
0.50488
0.5
0.52979
0.49512
0.54492
0.55518
0.5249
0.52979
0.49023
0.50977
0.54492
0.5752
0.55518
0.58008
0.6001
0.47021
0.20996
0.040039
-0.064941
0.1499
0.41992
0.58496
0.61475
0.6001
0.58984
0.625
0.5752
0.61475
0.62988
0.58496
0.60986
0.5752
0.56982
0.60986
0.5498
0.58008
0.6001
0.5249
0.49023
0.5249
0.49023
0.4751
0.47998
0.49023
0.44482
0.4248
0.43994
0.43018
0.43994
0.44482
0.4248
0.45508
0.47021
0.43018
0.41992
0.41504
0.49023
0.49512
0.47021
0.50977
0.54492
0.50488
0.49512
0.52002
0.51514
0.53516
0.49512
0.53516
0.51514
0.52002
0.50488
0.5249
0.5498
0.48486
0.47021
0.52002
0.52979
0.5498
0.50488
0.52002
0.5249
0.49512
0.54004
0.5498
0.54492
0.58008
0.59521
0.5752
0.51514
0.50488
0.5249
0.49023
0.54004
0.52002
0.50488
0.58496
0.56494
0.58496
0.60498
0.54492
0.56006
0.54492
0.52002
0.53516
0.51514
0.50488
0.5
0.54492
0.56494
0.50488
0.3252
0.090332
-0.11475
0.050293
0.33984
0.58496
0.7002
0.68018
0.63477
0.6001
0.58008
0.58984
0.56982
0.58496
0.5498
0.52979
0.56006
0.58008
0.56494
0.53516
0.56494
0.58496
0.54492
0.54004
0.53516
0.50977
0.46484
0.4751
0.49023
0.4248
0.3999
0.40479
0.3999
0.37012
0.37012
0.43994
0.43018
0.39014
0.41016
0.39014
0.45508
0.4502
0.47021
0.50488
0.4751
0.50977
0.50488
0.53516
0.44482
0.46484
0.44482
0.49023
0.51514
0.5
0.50488
0.47021
0.5249
0.53516
0.48486
0.51514
0.53516
0.50488
0.48486
0.56982
0.51514
0.49023
0.48486
0.54492
0.51514
0.50977
0.56006
0.58496
0.51514
0.5249
0.52002
0.50488
0.58496
0.5498
0.55518
0.56494
0.52979
0.52002
0.56494
0.58008
0.58496
0.45996
0.19531
-0.044922
-0.13477
0.20508
0.46484
0.625
0.66504
0.6001
0.58984
0.62012
0.60498
0.58496
0.5752
0.60498
0.58984
0.56494
0.60986
0.61475
0.54004
0.60986
0.61475
0.59521
0.54492
0.52979
0.50977
0.52002
0.44482
0.4502
0.41992
0.41016
0.4248
0.4248
0.41016
0.4248
0.39014
0.36523
0.43018
0.43506
0.47998
0.48486
0.44482
0.46484
0.49512
0.45508
0.49023
0.5249
0.53516
0.49023
0.5
0.49512
0.5249
0.49512
0.49023
0.52002
0.49023
0.47021
0.47998
0.5
0.5249
0.4751
0.47998
0.49023
0.52002
0.50977
0.5
0.5249
0.55518
0.56006
0.51514
0.50488
0.48486
0.54492
0.58984
0.56982
0.51514
0.52002
0.54492
0.60498
0.55518
0.5
0.49512
0.53516
0.56494
0.5249
0.52002
0.56982
0.5498
0.49023
0.31006
0.095215
-0.080078
0.064941
0.34521
0.5752
0.62012
0.6001
0.60986
0.60498
0.64502
0.5752
0.58496
0.53516
0.60986
0.5498
0.56982
0.5752
0.58496
0.56494
0.5498
0.59521
0.63477
0.53516
0.52002
0.5
0.5249
0.46484
0.44482
0.40479
0.3999
0.39014
0.37012
0.41016
0.47021
0.43994
0.38525
0.4248
0.35986
0.43506
0.5
0.4751
0.44482
0.48486
0.5
0.48486
0.4751
0.50488
0.49512
0.47998
0.47021
0.46484
0.4502
0.47998
0.45996
0.52002
0.49023
0.48486
0.52002
0.53516
0.52979
0.51514
0.56006
0.56494
0.51514
0.49512
0.54004
0.56006
0.51514
0.50488
0.58984
0.53516
0.5249
0.52002
0.54004
0.52979
0.56494
0.54492
0.54492
0.5249
0.51514
0.5498
0.50977
0.5
0.51514
0.58008
0.58984
0.55518
0.5498
0.58008
0.53516
0.56006
0.50488
0.54004
0.53516
0.54492
0.5
0.53516
0.54492
0.50977
0.50488
0.54004
0.50977
0.56006
0.50488
0.50977
0.5
0.54004
0.52979
0.50977
0.30518
0.050293
-0.15479
0.030273
0.3501
0.5752
0.66016
0.64502
0.60986
0.625
0.62988
0.58008
0.60986
0.58496
0.56494
0.54004
0.54492
0.54004
0.59521
0.60498
0.54492
0.50488
0.51514
0.47998
0.46484
0.47998
0.47021
0.5
0.4502
0.43994
0.40479
0.4502
0.43018
0.3999
0.40479
0.37988
0.375
0.39014
0.37012
0.41016
0.44482
0.44482
0.45508
0.43018
0.48486
0.49512
0.45996
0.43994
0.4751
0.51514
0.52979
0.51514
0.50977
0.5
0.5249
0.50488
0.4751
0.52002
0.56494
0.52002
0.49512
0.49023
0.50977
0.49512
0.54004
0.5249
0.54004
0.54492
0.51514
0.45996
0.56006
0.58984
0.54492
0.56006
0.56494
0.54004
0.5498
0.53516
0.54492
0.56006
0.56494
0.5249
0.58496
0.60498
0.50488
0.23486
-0.029785
-0.12988
0.17529
0.45996
0.60986
0.64502
0.59521
0.62988
0.63477
0.58984
0.5752
0.61475
0.64014
0.6499
0.53516
0.56494
0.55518
0.5752
0.56494
0.5498
0.56494
0.51514
0.52002
0.58008
0.5498
0.49512
0.47021
0.46484
0.49023
0.41504
0.43018
0.41016
0.3999
0.4248
0.39014
0.41504
0.41016
0.43994
0.47021
0.4751
0.46484
0.48486
0.45996
0.53516
0.56494
0.4751
0.47021
0.5498
0.5
0.53516
0.50488
0.49512
0.47998
0.5
0.52002
0.53516
0.5
0.50488
0.49512
0.54004
0.5
0.48486
0.54004
0.52002
0.49512
0.54492
0.55518
0.56982
0.49512
0.52002
0.56006
0.54492
0.5752
0.52979
0.52002
0.56494
0.5
0.50488
0.54004
0.54004
0.54492
0.54004
0.56006
0.3252
0.10986
-0.094727
-0.14502
0.30518
0.56494
0.60986
0.58496
0.58008
0.56982
0.62012
0.625
0.5752
0.55518
0.59521
0.62012
0.625
0.5752
0.56494
0.5498
0.56494
0.54004
0.56006
0.50977
0.49512
0.49512
0.4502
0.4248
0.43994
0.43018
0.4502
0.4502
0.43506
0.3999
0.43018
0.41504
0.3999
0.4502
0.4248
0.39502
0.43506
0.51514
0.49023
0.44482
0.47021
0.4751
0.46484
0.5498
0.52002
0.49512
0.5
0.49023
0.49512
0.52002
0.51514
0.53516
0.54492
0.47021
0.5
0.56006
0.56494
0.52002
0.56982
0.49512
0.50977
0.54004
0.56494
0.54004
0.51514
0.50977
0.53516
0.52002
0.54492
0.54004
0.56494
0.54492
0.56494
0.5498
0.52979
0.5752
0.56982
0.61475
0.625
0.43506
0.12988
-0.084961
-0.125
0.24512
0.47021
0.62988
0.64014
0.60986
0.625
0.63477
0.61475
0.60498
0.58984
0.60986
0.625
0.58008
0.56494
0.62012
0.5752
0.58496
0.56006
0.52002
0.5498
0.50488
0.49512
0.51514
0.53516
0.46484
0.43506
0.43018
0.45508
0.40479
0.43506
0.41992
0.44482
0.41016
0.43506
0.41016
0.43506
0.4502
0.43994
0.52979
0.48486
0.43994
0.50488
0.54004
0.49023
0.45996
0.48486
0.52979
0.54492
0.52002
0.52002
0.5
0.5249
0.4751
0.50977
0.54004
0.4751
0.47021
0.49023
0.52979
0.54004
0.54004
0.55518
0.58496
0.5498
0.51514
0.5498
0.52002
0.52979
0.5498
0.53516
0.51514
0.5
0.54004
0.52979
0.53516
0.52979
0.5249
0.54492
0.53516
0.5249
0.54004
0.56494
0.5498
0.55518
0.49512
0.5498
0.52979
0.52002
0.5249
0.54492
0.56494
0.5249
0.52002
0.52002
0.50977
0.5
0.53516
0.54004
0.49512
0.54004
0.5249
0.52979
0.59521
0.52979
0.53516
0.49512
0.49023
0.5
0.52002
0.5
0.50977
0.47021
0.51514
0.54492
0.5498
0.41504
0.15527
-0.089844
-0.1499
0.18994
0.4751
0.62012
0.66016
0.60986
0.62012
0.58984
0.5752
0.59521
0.5752
0.56494
0.56982
0.52002
0.56006
0.58008
0.55518
0.54492
0.58008
0.56494
0.5249
0.49512
0.52002
0.47021
0.4751
0.4502
0.46484
0.41992
0.39502
0.3999
0.39502
0.3999
0.40479
0.3999
0.39502
0.41016
0.41504
0.43018
0.41016
0.40479
0.43994
0.46484
0.44482
0.48486
0.46484
0.45996
0.50977
0.52002
0.56494
0.50977
0.47998
0.46484
0.49512
0.49512
0.47021
0.49512
0.47021
0.4751
0.47998
0.43018
0.51514
0.56006
0.5249
0.52002
0.53516
0.50977
0.49023
0.50977
0.5
0.49512
0.56494
0.54004
0.50488
0.5498
0.58496
0.5
0.22021
-0.0048828
-0.084961
0.17529
0.44482
0.56494
0.66504
0.625
0.58984
0.61475
0.58984
0.58008
0.59521
0.60986
0.65479
0.56982
0.5752
0.58496
0.56006
0.5249
0.56006
0.5752
0.60498
0.53516
0.51514
0.49023
0.46484
0.47998
0.44482
0.43994
0.3999
0.38525
0.40479
0.39502
0.45996
0.43994
0.43018
0.44482
0.4502
0.49023
0.51514
0.47021
0.45508
0.5
0.50488
0.5249
0.50488
0.49023
0.5249
0.53516
0.5
0.49512
0.50977
0.54004
0.49023
0.54492
0.49023
0.51514
0.50488
0.53516
0.5249
0.5498
0.54004
0.5249
0.51514
0.56494
0.56494
0.54004
0.51514
0.50977
0.53516
0.56494
0.56982
0.53516
0.54004
0.52979
0.51514
0.50977
0.58008
0.53516
0.53516
0.55518
0.53516
0.5498
0.5752
0.52979
0.54492
0.53516
0.54492
0.52002
0.56494
0.54492
0.49023
0.50977
0.54492
0.56494
0.54004
0.52002
0.52002
0.5249
0.50488
0.58496
0.54492
0.29492
0.015137
-0.13965
0.080078
0.40479
0.6001
0.625
0.60986
0.58008
0.58496
0.54492
0.61475
0.62012
0.58496
0.56006
0.59521
0.60986
0.58496
0.56006
0.55518
0.59521
0.56982
0.58008
0.50977
0.5249
0.46484
0.4502
0.45996
0.43506
0.40479
0.36523
0.39502
0.41504
0.41992
0.41504
0.43994
0.47021
0.40479
0.4248
0.4248
0.43994
0.3999
0.4248
0.45508
0.45996
0.44482
0.49512
0.49023
0.52002
0.51514
0.47998
0.49023
0.51514
0.48486
0.4751
0.50488
0.49512
0.52002
0.50977
0.5498
0.54004
0.49512
0.49023
0.53516
0.54004
0.51514
0.51514
0.52979
0.52002
0.54492
0.55518
0.56006
0.50488
0.54004
0.5
0.52979
0.54004
0.50977
0.5249
0.5498
0.56006
0.60498
0.54492
0.52002
0.54492
0.54004
0.58008
0.56494
0.49512
0.47998
0.50977
0.5249
0.54004
0.51514
0.55518
0.54492
0.5249
0.52002
0.55518
0.53516
0.5249
0.54004
0.52002
0.54492
0.52002
0.50488
0.51514
0.52002
0.49512
0.52002
0.52979
0.51514
0.54492
0.55518
0.45508
0.27002
-0.034668
-0.15479
0.13525
0.46484
0.55518
0.6499
0.66016
0.62988
0.56494
0.56982
0.58496
0.58984
0.56494
0.6001
0.5498
0.52979
0.61475
0.62988
0.59521
0.56006
0.56494
0.51514
0.49023
0.51514
0.5249
0.46484
0.47998
0.40479
0.3999
0.41992
0.40479
0.4248
0.36523
0.40479
0.4248
0.41016
0.43994
0.44482
0.43506
0.47021
0.41504
0.4248
0.4502
0.47998
0.4751
0.45508
0.49512
0.50488
0.48486
0.49023
0.50488
0.52979
0.51514
0.52979
0.5
0.47998
0.47021
0.51514
0.47021
0.46484
0.4751
0.51514
0.49512
0.54004
0.49023
0.50488
0.53516
0.55518
0.49023
0.4751
0.54004
0.54004
0.56006
0.56494
0.50977
0.52979
0.54004
0.5
0.53516
0.51514
0.50977
0.53516
0.5249
0.54492
0.53516
0.56006
0.52002
0.56982
0.5498
0.56006
0.52002
0.58008
0.51514
0.51514
0.5
0.49512
0.53516
0.50488
0.51514
0.56982
0.58984
0.375
0.14014
-0.064941
-0.099609
0.26514
0.51514
0.60498
0.62012
0.58984
0.59521
0.59521
0.5752
0.6001
0.56494
0.56006
0.61475
0.60986
0.55518
0.54492
0.60498
0.56006
0.53516
0.5498
0.5249
0.51514
0.51514
0.50488
0.45508
0.45996
0.4248
0.4502
0.46484
0.41016
0.38525
0.375
0.43018
0.36523
0.40479
0.41992
0.44482
0.4248
0.4248
0.47998
0.50488
0.45996
0.49023
0.51514
0.50488
0.53516
0.51514
0.5249
0.50977
0.52002
0.47021
0.49512
0.51514
0.50977
0.5249
0.47021
0.53516
0.5498
0.49512
0.51514
0.5498
0.54004
0.55518
0.51514
0.52979
0.54004
0.52979
0.52002
0.58008
0.52979
0.52979
0.50977
0.52002
0.55518
0.56982
0.53516
0.55518
0.52002
0.52979
0.54492
0.55518
0.5498
0.56982
0.55518
0.52979
0.51514
0.54004
0.5498
0.52979
0.50977
0.54492
0.56006
0.54492
0.52979
0.54004
0.54004
0.51514
0.50977
0.5498
0.53516
0.5
0.56982
0.59521
0.35986
0.1001
-0.11963
-0.125
0.33008
0.54004
0.62012
0.65479
0.60498
0.60986
0.56982
0.58008
0.58496
0.56494
0.63477
0.625
0.58496
0.54004
0.55518
0.58496
0.60986
0.55518
0.52002
0.50977
0.52002
0.49512
0.46484
0.47021
0.46484
0.44482
0.3999
0.40479
0.37988
0.41992
0.39014
0.375
0.36523
0.4502
0.45508
0.4248
0.46484
0.4502
0.4502
0.43018
0.47021
0.49512
0.50488
0.45508
0.49512
0.5
0.53516
0.5
0.54004
0.5498
0.50977
0.5
0.55518
0.50488
0.4751
0.45996
0.51514
0.52002
0.48486
0.4751
0.53516
0.54004
0.52979
0.53516
0.5
0.56006
0.53516
0.51514
0.54492
0.5498
0.50977
0.54004
0.52002
0.56494
0.54492
0.56006
0.54004
0.50977
0.5498
0.56494
0.54004
0.54492
0.50977
0.49512
0.56494
0.55518
0.54004
0.51514
0.52002
0.51514
0.56494
0.41504
0.18018
-0.084961
-0.15479
0.21484
0.46484
0.625
0.65479
0.66992
0.60986
0.63477
0.58984
0.5498
0.58984
0.56982
0.59521
0.56982
0.56494
0.54004
0.5752
0.59521
0.56494
0.51514
0.52002
0.54492
0.49023
0.50977
0.47998
0.48486
0.41016
0.4248
0.43018
0.38525
0.35498
0.375
0.3999
0.39502
0.41504
0.40479
0.45508
0.43506
0.43018
0.47021
0.45508
0.50977
0.49023
0.52002
0.54004
0.52002
0.5249
0.47998
0.4751
0.49023
0.50488
0.50977
0.49023
0.46484
0.48486
0.49512
0.48486
0.49512
0.5249
0.53516
0.54492
0.5249
0.50488
0.49512
0.52002
0.49512
0.54004
0.52979
0.50977
0.52002
0.52002
0.52002
0.47998
0.55518
0.56006
0.53516
0.52002
0.54492
0.52979
0.50977
0.5249
0.52002
0.54492
0.54004
0.52979
0.52002
0.56494
0.50488
0.5498
0.55518
0.54492
0.52002
0.54004
0.51514
0.50488
0.54492
0.50488
0.49023
0.53516
0.51514
0.52979
0.49512
0.53516
0.56006
0.52002
0.5249
0.50488
0.5
0.52002
0.54004
0.56494
0.51514
0.50977
0.48486
0.45996
0.50977
0.5249
0.50977
0.51514
0.44482
0.22998
-0.034668
-0.12988
0.16016
0.46484
0.63477
0.66504
0.60986
0.58984
0.5752
0.56982
0.58984
0.56494
0.56006
0.55518
0.56982
0.60498
0.52979
0.56006
0.56982
0.55518
0.56494
0.5249
0.50977
0.52979
0.52002
0.49023
0.47021
0.43994
0.3999
0.40479
0.39502
0.37988
0.36523
0.37988
0.40479
0.375
0.41016
0.4502
0.45508
0.41992
0.4502
0.46484
0.40479
0.47998
0.5
0.4751
0.49512
0.47998
0.50977
0.54004
0.49512
0.52979
0.50488
0.49023
0.47021
0.49512
0.55518
0.51514
0.49512
0.49023
0.54492
0.5
0.53516
0.49512
0.45996
0.52002
0.54492
0.54004
0.55518
0.54004
0.56006
0.5249
0.50488
0.56494
0.55518
0.54004
0.52979
0.53516
0.54004
0.54004
0.52979
0.55518
0.5498
0.56494
0.54004
0.52002
0.56494
0.54004
0.5249
0.52002
0.5249
0.54004
0.51514
0.56006
0.56494
0.54004
0.50488
0.5
0.56982
0.46484
0.2002
0.0048828
-0.10986
0.11523
0.41992
0.64014
0.68018
0.66504
0.6001
0.56982
0.60498
0.5752
0.58008
0.54004
0.5752
0.58008
0.56494
0.58984
0.58496
0.61475
0.56982
0.5498
0.56006
0.50488
0.4502
0.48486
0.51514
0.48486
0.43506
0.40479
0.39014
0.38525
0.41016
0.3999
0.35986
0.38525
0.39502
0.43994
0.41504
0.49023
0.47021
0.44482
0.46484
0.47998
0.48486
0.45508
0.50977
0.51514
0.49512
0.50488
0.56494
0.51514
0.49512
0.52002
0.5
0.50488
0.5
0.5249
0.52979
0.50977
0.48486
0.4751
0.54492
0.5498
0.5249
0.50977
0.5498
0.6001
0.5249
0.50488
0.5249
0.54004
0.5498
0.54004
0.56982
0.53516
0.54492
0.56006
0.5249
0.54492
0.5752
0.51514
0.5498
0.5752
0.58008
0.5249
0.52002
0.55518
0.58008
0.53516
0.5752
0.6001
0.5249
0.52002
0.52002
0.54004
0.52002
0.56006
0.54004
0.5249
0.50488
0.49512
0.5
0.5249
0.54492
0.56006
0.52979
0.52002
0.54004
0.49512
0.49023
0.51514
0.5
0.52002
0.54492
0.52002
0.5
0.5249
0.47021
0.49023
0.51514
0.49512
0.50488
0.5249
0.55518
0.4248
0.20996
-0.099609
-0.16504
0.14014
0.46484
0.6001
0.64014
0.63477
0.60986
0.5752
0.53516
0.5249
0.5752
0.60986
0.55518
0.51514
0.58496
0.6001
0.5498
0.54492
0.58496
0.56982
0.54004
0.52979
0.49512
0.52002
0.4751
0.43506
0.41504
0.43018
0.36523
0.3252
0.39014
0.39502
0.3501
0.37988
0.40479
0.3999
0.41992
0.41016
0.43506
0.41016
0.47021
0.45996
0.50488
0.52002
0.53516
0.47021
0.45508
0.45996
0.44482
0.47998
0.52979
0.49023
0.47998
0.51514
0.50488
0.52002
0.52979
0.55518
0.49512
0.54004
0.53516
0.50977
0.51514
0.5
0.53516
0.56006
0.53516
0.49023
0.47021
0.5249
0.55518
0.56494
0.5498
0.5249
0.52002
0.54492
0.56006
0.5752
0.56006
0.54004
0.53516
0.54492
0.5498
0.54004
0.50977
0.50488
0.53516
0.5752
0.55518
0.52002
0.58008
0.55518
0.5249
0.5498
0.51514
0.49512
0.56494
0.49512
0.54492
0.50488
0.49023
0.56494
0.53516
0.39502
0.10498
-0.13477
-0.1499
0.3252
0.56982
0.625
0.6499
0.65479
0.58984
0.59521
0.60498
0.55518
0.56982
0.58008
0.5752
0.59521
0.52979
0.56006
0.53516
0.5249
0.56006
0.5752
0.5498
0.55518
0.56006
0.46484
0.45996
0.47021
0.45508
0.3999
0.37012
0.39014
0.36523
0.35498
0.39014
0.36523
0.38525
0.39014
0.35498
0.44482
0.49023
0.45508
0.4502
0.52002
0.50488
0.55518
0.52979
0.56006
0.54004
0.49512
0.49023
0.5249
0.51514
0.5249
0.43994
0.4248
0.49023
0.52002
0.48486
0.47021
0.52979
0.51514
0.50488
0.54492
0.52002
0.52979
0.49512
0.54004
0.56982
0.5752
0.56006
0.52979
0.49023
0.55518
0.5752
0.54492
0.53516
0.60986
0.54492
0.54004
0.56494
0.53516
0.56494
0.5
0.54492
0.49512
0.5498
0.5752
0.58008
0.54492
0.54004
0.51514
0.5498
0.56494
0.54492
0.5
0.52979
0.53516
0.51514
0.54492
0.54004
0.51514
0.52979
0.50977
0.52002
0.52002
0.50977
0.52979
0.54004
0.54004
0.5498
0.52979
0.56494
0.51514
0.55518
0.5249
0.5
0.48486
0.45996
0.5
0.52002
0.52002
0.54004
0.54004
0.49023
0.28516
0.030273
-0.13965
0.090332
0.36523
0.5498
0.6499
0.625
0.58496
0.56006
0.5752
0.58984
0.58008
0.56006
0.56494
0.58496
0.53516
0.56494
0.58008
0.56494
0.60986
0.56982
0.56494
0.5498
0.49023
0.45508
0.51514
0.48486
0.44482
0.40479
0.375
0.3501
0.37988
0.38525
0.35986
0.37988
0.37012
0.38525
0.3999
0.41504
0.43018
0.45508
0.41992
0.46484
0.47021
0.4751
0.48486
0.47998
0.49512
0.4751
0.48486
0.5249
0.46484
0.45996
0.50488
0.5249
0.4248
0.50977
0.5249
0.48486
0.4502
0.53516
0.54492
0.51514
0.50488
0.5
0.49023
0.50977
0.5498
0.51514
0.48486
0.54004
0.52002
0.50488
0.52979
0.55518
0.52002
0.52979
0.54004
0.50977
0.54004
0.5249
0.54004
0.49512
0.56982
0.52002
0.5249
0.54004
0.5249
0.56006
0.54492
0.53516
0.5
0.52979
0.60986
0.5498
0.33008
0.044922
-0.15479
0
0.3252
0.52002
0.65479
0.66992
0.6001
0.58984
0.63477
0.64014
0.6001
0.60986
0.58008
0.5498
0.56006
0.5249
0.52979
0.56006
0.58008
0.55518
0.56006
0.52979
0.53516
0.49023
0.5249
0.49512
0.50488
0.45508
0.39502
0.35498
0.36523
0.3501
0.41504
0.4248
0.39502
0.43994
0.43506
0.41992
0.46484
0.4502
0.4502
0.47021
0.46484
0.48486
0.44482
0.5
0.52002
0.52979
0.5
0.53516
0.50977
0.53516
0.50977
0.5
0.52979
0.5249
0.51514
0.50488
0.49512
0.52002
0.54492
0.56006
0.5
0.49023
0.50488
0.47998
0.49023
0.54492
0.56006
0.54004
0.53516
0.54492
0.52002
0.58496
0.59521
0.62988
0.56494
0.28516
-0.02002
-0.074707
0.16016
0.3999
0.5752
0.60986
0.56006
0.60498
0.64502
0.58008
0.60986
0.6001
0.64014
0.625
0.62988
0.58984
0.58496
0.62988
0.5498
0.56006
0.54004
0.56494
0.53516
0.50488
0.53516
0.52002
0.4751
0.4248
0.4248
0.43018
0.35498
0.375
0.39502
0.40479
0.39502
0.40479
0.43994
0.4751
0.45508
0.49512
0.47998
0.50488
0.52002
0.50977
0.49512
0.52002
0.5
0.49023
0.52979
0.50977
0.5249
0.47021
0.45508
0.49023
0.46484
0.41016
0.33496
0.20996
0.090332
-0.15967
-0.33984
-0.35498
-0.32959
-0.22998
-0.125
-0.034668
0
0.080078
0.29492
0.58984
0.77002
0.81494
0.8501
0.875
0.83984
0.8501
0.875
0.8999
0.92969
0.93506
0.90479
0.94482
0.96484
0.9248
0.8999
0.9248
0.91504
0.875
0.8501
0.85986
0.83984
0.80469
0.81494
0.75977
0.70508
0.71484
0.64502
0.66016
0.625
0.60498
0.56006
0.51514
0.50977
0.5249
0.47021
0.5
0.46484
0.5249
0.49023
0.4751
0.47021
0.47998
0.46484
0.45508
0.45996
0.45508
0.49023
0.50488
0.49023
0.45996
0.49512
0.45996
0.48486
0.52979
0.55518
0.50977
0.48486
0.5
0.5249
0.4751
0.52002
0.54004
0.5
0.51514
0.49512
0.50488
0.5
0.54004
0.50977
0.52002
0.5
0.49512
0.50977
0.49512
0.52979
0.49512
0.51514
0.5249
0.5
0.48486
0.51514
0.4751
0.52002
0.4751
0.52979
0.47998
0.49023
0.49512
0.4751
0.50977
0.5249
0.50977
0.54004
0.50488
0.47021
0.50977
0.52979
0.47998
0.29004
0.050293
-0.15967
-0.1748
0.28027
0.54004
0.6001
0.62012
0.65479
0.60498
0.58008
0.58984
0.53516
0.50977
0.56982
0.58984
0.54492
0.53516
0.51514
0.5249
0.53516
0.56494
0.54004
0.51514
0.4751
0.44482
0.50488
0.47998
0.4502
0.39014
0.38525
0.35986
0.33984
0.38525
0.39502
0.35498
0.375
0.36523
0.35498
0.39502
0.39014
0.41504
0.4502
0.43018
0.44482
0.43506
0.51514
0.45996
0.49023
0.46484
0.49512
0.48486
0.47021
0.4751
0.45508
0.48486
0.49512
0.48486
0.51514
0.54492
0.52002
0.5
0.50977
0.50488
0.53516
0.52002
0.49512
0.5
0.51514
0.52979
0.54492
0.56006
0.56006
0.56494
0.54004
0.5498
0.50488
0.54004
0.51514
0.5
0.47998
0.58496
0.56494
0.54004
0.58496
0.62988
0.64014
0.3501
0.10498
-0.10498
-0.125
0.30518
0.56494
0.6499
0.66016
0.58984
0.6001
0.58984
0.62988
0.6001
0.60498
0.60986
0.61475
0.62012
0.58008
0.56494
0.58008
0.56494
0.58008
0.56982
0.54004
0.54492
0.5
0.47998
0.5249
0.43994
0.41504
0.43506
0.37012
0.3999
0.44482
0.45996
0.40479
0.39014
0.43506
0.45996
0.43506
0.4751
0.45508
0.43994
0.49512
0.48486
0.49512
0.5249
0.54004
0.49512
0.52002
0.52979
0.49512
0.45508
0.51514
0.5249
0.50488
0.53516
0.54004
0.52002
0.53516
0.56494
0.56006
0.52002
0.51514
0.5
0.49023
0.56006
0.52979
0.51514
0.56494
0.54004
0.53516
0.58008
0.56006
0.5498
0.56494
0.56006
0.53516
0.58008
0.59521
0.60986
0.31982
0.035156
-0.11475
0.12988
0.41992
0.5752
0.625
0.63477
0.60498
0.62988
0.63477
0.6001
0.59521
0.625
0.62988
0.59521
0.60986
0.5752
0.58496
0.58008
0.56006
0.56494
0.52979
0.51514
0.54004
0.54492
0.47021
0.45508
0.5
0.4751
0.45508
0.43506
0.43994
0.35498
0.3999
0.40479
0.43018
0.43994
0.41016
0.3999
0.41992
0.41016
0.49512
0.5
0.5249
0.52979
0.49023
0.49512
0.51514
0.52979
0.49512
0.50488
0.46484
0.47021
0.45508
0.50488
0.5
0.50977
0.49512
0.54004
0.53516
0.5498
0.53516
0.52002
0.55518
0.53516
0.48486
0.51514
0.52002
0.50977
0.54492
0.5249
0.51514
0.5498
0.52979
0.5249
0.5498
0.52979
0.56006
0.5752
0.56982
0.56494
0.56982
0.52979
0.49512
0.52979
0.54492
0.56494
0.5498
0.55518
0.50488
0.48486
0.52002
0.54004
0.5498
0.5498
0.56982
0.58008
0.25
-0.014648
-0.14502
0.090332
0.41504
0.6001
0.60986
0.61475
0.54492
0.56494
0.56006
0.62988
0.58008
0.56494
0.5498
0.56982
0.58008
0.5752
0.59521
0.54492
0.56494
0.55518
0.52002
0.50488
0.52002
0.50977
0.45508
0.47998
0.43506
0.40479
0.41504
0.4248
0.34521
0.39014
0.4248
0.43018
0.38525
0.39502
0.40479
0.3999
0.43994
0.46484
0.47021
0.44482
0.4751
0.50488
0.53516
0.5
0.50977
0.45996
0.49023
0.52979
0.5
0.47998
0.5
0.45508
0.49512
0.50488
0.52979
0.56982
0.50977
0.52002
0.50977
0.54004
0.52002
0.51514
0.5249
0.5498
0.50977
0.5249
0.54004
0.5
0.51514
0.50488
0.56006
0.52979
0.56982
0.5752
0.5249
0.56982
0.56006
0.56494
0.54492
0.5249
0.55518
0.5249
0.49512
0.49023
0.5498
0.5752
0.5
0.30029
0.044922
-0.044922
0.1499
0.41016
0.5498
0.60498
0.63477
0.6001
0.58008
0.56982
0.56494
0.56006
0.60498
0.58984
0.58984
0.60986
0.60498
0.56982
0.52979
0.59521
0.60498
0.54004
0.52979
0.51514
0.48486
0.4751
0.43994
0.45996
0.40479
0.39502
0.41016
0.37988
0.3999
0.41016
0.43994
0.44482
0.43994
0.40479
0.37988
0.43994
0.46484
0.47998
0.4751
0.46484
0.48486
0.52002
0.54492
0.52002
0.5
0.49512
0.5498
0.5
0.52002
0.49023
0.52002
0.52002
0.52002
0.50977
0.49023
0.52002
0.5
0.53516
0.52002
0.50488
0.52979
0.5498
0.5249
0.53516
0.56494
0.58496
0.5752
0.54492
0.53516
0.54492
0.5249
0.56006
0.54492
0.52002
0.50488
0.56494
0.58496
0.5752
0.50977
0.55518
0.5752
0.5498
0.5249
0.56494
0.5498
0.52979
0.54004
0.5
0.5498
0.5249
0.54004
0.5752
0.56494
0.56982
0.50488
0.51514
0.49023
0.48486
0.56006
0.54004
0.52002
0.54492
0.55518
0.52002
0.54004
0.51514
0.49512
0.5249
0.56006
0.55518
0.49023
0.4751
0.50977
0.55518
0.54004
0.52002
0.5
0.56006
0.40479
0.13525
-0.10986
-0.15479
0.22021
0.48486
0.65479
0.66016
0.61475
0.62012
0.58496
0.56006
0.56494
0.56006
0.58984
0.56006
0.5752
0.54492
0.58984
0.58496
0.59521
0.56494
0.56982
0.56006
0.50977
0.49512
0.47021
0.4502
0.45996
0.41504
0.43994
0.41504
0.35498
0.37988
0.3999
0.37012
0.37988
0.375
0.41016
0.43018
0.43994
0.40479
0.44482
0.46484
0.44482
0.48486
0.46484
0.44482
0.44482
0.4751
0.53516
0.56494
0.50488
0.5
0.52002
0.52002
0.50977
0.52002
0.50488
0.53516
0.52002
0.50488
0.49023
0.50488
0.48486
0.4751
0.50977
0.5249
0.52002
0.54004
0.54004
0.5249
0.54004
0.56006
0.54004
0.52002
0.58008
0.54004
0.53516
0.52979
0.56494
0.51514
0.52979
0.56494
0.53516
0.51514
0.52002
0.5
0.53516
0.52002
0.56006
0.55518
0.5498
0.54004
0.49512
0.5249
0.54492
0.52002
0.51514
0.53516
0.49512
0.51514
0.50977
0.5249
0.5249
0.54492
0.52002
0.55518
0.56006
0.5498
0.40479
0.1001
-0.11963
-0.13965
0.28516
0.54492
0.62988
0.65479
0.5752
0.59521
0.56006
0.58496
0.59521
0.60986
0.56494
0.55518
0.56494
0.56006
0.58496
0.56494
0.5498
0.52979
0.5498
0.56494
0.5249
0.50488
0.49512
0.45996
0.43994
0.37012
0.39014
0.3999
0.37012
0.39502
0.43994
0.375
0.41016
0.4248
0.3999
0.43506
0.3999
0.4248
0.43506
0.50488
0.51514
0.45508
0.48486
0.50977
0.52979
0.48486
0.51514
0.50488
0.54492
0.50488
0.5
0.49023
0.47998
0.50488
0.52979
0.49512
0.52002
0.52979
0.50488
0.52979
0.50488
0.54492
0.55518
0.5249
0.52979
0.5
0.52979
0.52002
0.53516
0.52002
0.53516
0.51514
0.49512
0.52979
0.52002
0.51514
0.58496
0.54492
0.54004
0.49512
0.5249
0.50977
0.5498
0.58496
0.52979
0.34521
0.044922
-0.12988
0.044922
0.3501
0.5498
0.60986
0.60498
0.60986
0.62012
0.56982
0.6001
0.60986
0.60498
0.5752
0.56494
0.59521
0.58984
0.58496
0.56494
0.56006
0.56982
0.50977
0.49512
0.52979
0.49023
0.4502
0.46484
0.44482
0.4248
0.43018
0.40479
0.37988
0.375
0.41016
0.35986
0.41504
0.43018
0.43994
0.44482
0.43994
0.47998
0.48486
0.49023
0.47998
0.52979
0.54004
0.54492
0.49512
0.48486
0.48486
0.5
0.51514
0.5
0.4751
0.52002
0.52979
0.50977
0.50488
0.54492
0.52002
0.54004
0.48486
0.51514
0.54004
0.49512
0.56494
0.5249
0.5
0.52979
0.56006
0.5752
0.54004
0.54004
0.56494
0.56494
0.56494
0.52002
0.54004
0.52979
0.56494
0.54492
0.53516
0.5498
0.5
0.52979
0.56006
0.5498
0.60498
0.625
0.5
0.29492
0.010254
-0.15479
0.044922
0.37012
0.59521
0.61475
0.60986
0.62988
0.58496
0.60498
0.60986
0.60498
0.62012
0.64014
0.59521
0.5498
0.5752
0.60498
0.56494
0.56982
0.54492
0.52002
0.52002
0.5249
0.50488
0.4751
0.47021
0.46484
0.4248
0.41016
0.45996
0.4248
0.3501
0.39502
0.41504
0.375
0.36523
0.4248
0.43994
0.46484
0.45996
0.50488
0.50977
0.5
0.49512
0.52002
0.50488
0.49512
0.48486
0.52002
0.50977
0.52979
0.48486
0.5
0.5498
0.5
0.49023
0.52979
0.48486
0.4751
0.5498
0.49023
0.4751
0.5249
0.54004
0.52002
0.52002
0.50977
0.5249
0.51514
0.58008
0.5498
0.5249
0.54492
0.52979
0.54004
0.52002
0.5498
0.55518
0.52002
0.50977
0.54004
0.52002
0.5
0.49023
0.59521
0.54004
0.52002
0.49512
0.49023
0.52979
0.55518
0.54004
0.58984
0.53516
0.3252
0.024902
-0.1499
0.030273
0.375
0.5498
0.60498
0.62012
0.56494
0.56982
0.56982
0.5752
0.6001
0.60986
0.5752
0.56982
0.56494
0.58984
0.5498
0.62012
0.58008
0.50488
0.5249
0.52002
0.5
0.5249
0.52979
0.4751
0.4502
0.45508
0.45508
0.41992
0.38525
0.40479
0.39502
0.375
0.39014
0.37988
0.3999
0.41504
0.43506
0.45996
0.4751
0.47021
0.52979
0.53516
0.51514
0.54004
0.49023
0.47021
0.50488
0.5249
0.49023
0.47998
0.51514
0.49512
0.50488
0.49512
0.5
0.51514
0.5249
0.54004
0.53516
0.52979
0.54004
0.5498
0.50977
0.54004
0.54004
0.5249
0.54004
0.53516
0.56006
0.5
0.52979
0.56982
0.56006
0.5752
0.54004
0.54492
0.56494
0.5498
0.56006
0.54492
0.56006
0.55518
0.5249
0.50488
0.54004
0.56006
0.54492
0.5249
0.54004
0.54492
0.52979
0.55518
0.54492
0.54004
0.56006
0.53516
0.52002
0.53516
0.5
0.48486
0.55518
0.52979
0.50977
0.52002
0.54004
0.51514
0.56982
0.5752
0.39014
0.13525
-0.094727
-0.14502
0.28027
0.5249
0.60986
0.625
0.56494
0.61475
0.58984
0.56982
0.58496
0.58984
0.59521
0.56006
0.60498
0.58984
0.56494
0.5752
0.54004
0.53516
0.56982
0.50977
0.49023
0.47021
0.51514
0.47021
0.44482
0.43994
0.41016
0.375
0.40479
0.36523
0.35498
0.37012
0.39502
0.39014
0.37988
0.41992
0.44482
0.4502
0.41016
0.45508
0.52002
0.47021
0.5
0.5249
0.54004
0.50488
0.4751
0.47021
0.50488
0.4751
0.47021
0.51514
0.49512
0.48486
0.51514
0.5249
0.52979
0.51514
0.54492
0.47998
0.52002
0.49023
0.55518
0.56982
0.53516
0.52002
0.52002
0.54004
0.53516
0.56982
0.5249
0.55518
0.56494
0.54004
0.50977
0.54004
0.53516
0.58496
0.56006
0.5498
0.56006
0.58984
0.60986
0.35986
0.1001
-0.125
-0.13965
0.29004
0.50977
0.62988
0.63477
0.60498
0.625
0.56982
0.56494
0.61475
0.63477
0.60986
0.63477
0.58008
0.62988
0.6001
0.54004
0.52979
0.55518
0.5498
0.53516
0.54492
0.47998
0.50488
0.48486
0.45508
0.41504
0.4502
0.40479
0.39014
0.37988
0.41992
0.41504
0.4502
0.43994
0.40479
0.43018
0.41992
0.4502
0.48486
0.47021
0.48486
0.51514
0.5249
0.52979
0.5249
0.56006
0.5
0.54004
0.52002
0.52002
0.50488
0.49512
0.53516
0.48486
0.47021
0.49023
0.48486
0.50977
0.56006
0.5249
0.51514
0.50488
0.56494
0.53516
0.5249
0.52002
0.56006
0.56494
0.51514
0.54492
0.52979
0.5
0.5249
0.54492
0.5498
0.54492
0.56006
0.56494
0.47998
0.20996
0.015137
-0.064941
0.14502
0.43018
0.60498
0.63477
0.60986
0.58984
0.58984
0.6001
0.60498
0.59521
0.5498
0.56494
0.60986
0.56494
0.56982
0.60498
0.58496
0.56494
0.56006
0.54004
0.5249
0.52002
0.49023
0.49512
0.4502
0.4248
0.43018
0.41016
0.37988
0.39502
0.39014
0.45996
0.41016
0.39502
0.43506
0.4502
0.4248
0.4502
0.51514
0.49023
0.47998
0.45508
0.48486
0.5498
0.52979
0.48486
0.4751
0.50488
0.51514
0.48486
0.50977
0.52979
0.5249
0.52002
0.52002
0.49023
0.51514
0.50977
0.50488
0.5249
0.50488
0.53516
0.52002
0.52002
0.52002
0.56006
0.58496
0.56494
0.54492
0.53516
0.5498
0.58008
0.53516
0.55518
0.5498
0.53516
0.5498
0.49512
0.51514
0.54492
0.5498
0.56982
0.61475
0.52979
0.30029
0.0048828
-0.15967
0.095215
0.43506
0.58984
0.60986
0.63477
0.62012
0.59521
0.60498
0.625
0.60986
0.58984
0.58496
0.56494
0.60986
0.54492
0.56982
0.52002
0.50488
0.56494
0.53516
0.54492
0.49023
0.50977
0.47021
0.47998
0.47021
0.50977
0.4248
0.4248
0.3999
0.38525
0.37988
0.43018
0.3999
0.43506
0.4248
0.43018
0.40479
0.49023
0.4751
0.49023
0.47998
0.50488
0.51514
0.45996
0.46484
0.50488
0.52002
0.47998
0.52979
0.52002
0.53516
0.5
0.49512
0.52002
0.52979
0.50488
0.56494
0.54004
0.53516
0.50977
0.46484
0.50488
0.52002
0.49512
0.52002
0.50488
0.49512
0.54004
0.55518
0.54492
0.60498
0.5752
0.5498
0.5249
0.5752
0.58984
0.60986
0.49512
0.21484
-0.089844
-0.15479
0.25488
0.4751
0.6001
0.62988
0.64014
0.65479
0.60986
0.60986
0.61475
0.58984
0.59521
0.62012
0.58496
0.58008
0.59521
0.56494
0.56006
0.56982
0.55518
0.52979
0.52002
0.5249
0.46484
0.50488
0.45508
0.43018
0.46484
0.47021
0.3999
0.375
0.41504
0.4248
0.43506
0.40479
0.4248
0.45996
0.43506
0.4751
0.50488
0.50977
0.49023
0.47998
0.51514
0.52979
0.53516
0.49512
0.47021
0.4751
0.46484
0.48486
0.50488
0.52002
0.52002
0.51514
0.52979
0.56006
0.56982
0.49023
0.5249
0.54004
0.52002
0.50488
0.52979
0.54004
0.5
0.53516
0.52979
0.56006
0.56494
0.58008
0.58984
0.55518
0.56006
0.54492
0.53516
0.54492
0.55518
0.56494
0.50977
0.49512
0.53516
0.54492
0.52979
0.58496
0.60498
0.5752
0.5249
0.29492
0.030273
-0.13965
0.075195
0.39502
0.5752
0.625
0.63477
0.6001
0.6001
0.64014
0.62988
0.62012
0.625
0.54492
0.54004
0.6001
0.5752
0.5498
0.56982
0.58984
0.5249
0.56494
0.52979
0.52002
0.54492
0.5
0.51514
0.43506
0.41016
0.37988
0.39014
0.36523
0.39502
0.41504
0.3999
0.39502
0.43018
0.41504
0.47021
0.4248
0.43994
0.45508
0.47998
0.47021
0.49023
0.52002
0.50977
0.51514
0.52002
0.49512
0.48486
0.5
0.5249
0.49512
0.46484
0.54004
0.50977
0.47021
0.46484
0.52002
0.5249
0.49512
0.53516
0.51514
0.50977
0.53516
0.5
0.49512
0.54004
0.5
0.55518
0.53516
0.52002
0.56494
0.5752
0.54004
0.55518
0.56494
0.52002
0.5498
0.53516
0.52979
0.54492
0.5249
0.50977
0.54004
0.52002
0.5498
0.56494
0.52002
0.5752
0.60986
0.54492
0.24023
0.024902
-0.074707
0.10498
0.39014
0.56982
0.58984
0.58496
0.5752
0.6001
0.61475
0.58496
0.59521
0.58496
0.625
0.59521
0.58496
0.6001
0.56982
0.55518
0.59521
0.55518
0.53516
0.54004
0.49512
0.49512
0.45996
0.4502
0.44482
0.43994
0.4248
0.41016
0.3999
0.44482
0.3999
0.43994
0.46484
0.43018
0.39014
0.4502
0.45508
0.41016
0.44482
0.45996
0.48486
0.47021
0.5249
0.54004
0.54004
0.53516
0.5249
0.54004
0.54492
0.49512
0.5
0.47998
0.52002
0.5249
0.45508
0.51514
0.5
0.51514
0.50977
0.49512
0.54492
0.56006
0.52979
0.5498
0.54004
0.56006
0.53516
0.54004
0.53516
0.56494
0.55518
0.5249
0.52002
0.56006
0.52979
0.5752
0.5249
0.50488
0.54492
0.56982
0.53516
0.5249
0.53516
0.5249
0.5498
0.54004
0.56494
0.56006
0.43994
0.15527
-0.094727
-0.125
0.2749
0.49512
0.58984
0.65479
0.625
0.59521
0.60986
0.56982
0.60986
0.58496
0.59521
0.56494
0.5498
0.60498
0.58008
0.58984
0.56982
0.60986
0.5498
0.5249
0.50977
0.49023
0.47998
0.50488
0.4248
0.41992
0.375
0.39014
0.3999
0.41016
0.3999
0.40479
0.39502
0.41992
0.43994
0.45508
0.43506
0.50488
0.51514
0.45996
0.46484
0.4751
0.5
0.49512
0.50977
0.52002
0.50488
0.5249
0.47021
0.5
0.52002
0.47021
0.52979
0.54004
0.51514
0.49512
0.50488
0.5
0.49023
0.52002
0.55518
0.56982
0.54004
0.54492
0.51514
0.48486
0.52979
0.54004
0.51514
0.56494
0.5752
0.5249
0.52002
0.5498
0.56494
0.54492
0.53516
0.56494
0.5752
0.5249
0.51514
0.56494
0.56006
0.6001
0.53516
0.29492
0.024902
-0.11963
0.095215
0.38525
0.58008
0.64502
0.60498
0.56006
0.59521
0.60498
0.61475
0.59521
0.63477
0.58496
0.59521
0.5752
0.58984
0.58496
0.5498
0.5249
0.58984
0.5249
0.47021
0.50977
0.54492
0.4502
0.4248
0.43994
0.44482
0.4248
0.3999
0.375
0.41016
0.39014
0.41992
0.41016
0.3999
0.43994
0.41992
0.44482
0.4502
0.47021
0.46484
0.47998
0.47021
0.49512
0.49023
0.5249
0.53516
0.52002
0.47998
0.45996
0.50488
0.52002
0.51514
0.52002
0.52979
0.49512
0.50977
0.50488
0.48486
0.51514
0.52002
0.52979
0.51514
0.54492
0.54004
0.56006
0.53516
0.52002
0.53516
0.52002
0.56494
0.51514
0.52979
0.56982
0.56006
0.52002
0.54004
0.5498
0.52979
0.55518
0.5498
0.52002
0.51514
0.5249
0.52002
0.5498
0.50977
0.52979
0.54492
0.56982
0.53516
0.50488
0.5
0.55518
0.52002
0.54004
0.53516
0.56982
0.5752
0.41992
0.1499
-0.074707
-0.12988
0.24512
0.47021
0.62988
0.62012
0.59521
0.58008
0.58008
0.59521
0.62012
0.6499
0.56494
0.58008
0.54492
0.5752
0.58496
0.56006
0.58496
0.54004
0.54492
0.5249
0.50977
0.5
0.48486
0.46484
0.48486
0.44482
0.43506
0.39014
0.38525
0.41992
0.3999
0.35986
0.39502
0.38525
0.43018
0.41992
0.47021
0.43994
0.47021
0.49023
0.46484
0.45996
0.46484
0.45996
0.51514
0.45508
0.50488
0.5249
0.49512
0.52979
0.5
0.48486
0.52002
0.56006
0.52002
0.49023
0.49512
0.54004
0.49512
0.47021
0.52002
0.50488
0.5249
0.53516
0.52002
0.56982
0.54004
0.53516
0.5752
0.56494
0.54004
0.56006
0.56494
0.49023
0.55518
0.60986
0.55518
0.31494
0.02002
-0.10986
0.125
0.43018
0.5752
0.625
0.63477
0.6001
0.60986
0.61475
0.58008
0.58984
0.64014
0.61475
0.58496
0.56006
0.58984
0.58008
0.6001
0.58984
0.6001
0.55518
0.5249
0.52002
0.52979
0.47021
0.46484
0.43994
0.43018
0.3999
0.38525
0.41992
0.4248
0.39014
0.3999
0.41992
0.40479
0.45996
0.4502
0.47998
0.52002
0.49512
0.49512
0.48486
0.47021
0.5249
0.54004
0.51514
0.52002
0.49512
0.5
0.49512
0.50977
0.4751
0.5
0.5
0.52002
0.50488
0.51514
0.5
0.52979
0.5249
0.54004
0.51514
0.5498
0.5752
0.53516
0.56982
0.49512
0.5
0.56982
0.53516
0.50977
0.54004
0.56006
0.5498
0.53516
0.52979
0.56494
0.5498
0.58496
0.58984
0.53516
0.50977
0.55518
0.56494
0.56982
0.50488
0.2251
-0.024902
-0.1499
0.125
0.41992
0.62012
0.66992
0.68018
0.5752
0.58496
0.5752
0.60986
0.63477
0.62988
0.56494
0.56006
0.56494
0.6001
0.60498
0.53516
0.52979
0.56006
0.56982
0.50488
0.5249
0.49512
0.52002
0.49023
0.46484
0.43018
0.41504
0.41504
0.41992
0.37012
0.39014
0.38525
0.37988
0.41992
0.3999
0.4248
0.41992
0.45996
0.5
0.50977
0.5
0.50977
0.51514
0.47021
0.48486
0.50977
0.48486
0.49512
0.4751
0.45996
0.4751
0.54492
0.51514
0.52002
0.49512
0.52002
0.52002
0.52002
0.5
0.50488
0.53516
0.52002
0.52979
0.52002
0.53516
0.52979
0.54004
0.52979
0.58008
0.38525
0.14502
-0.040039
-0.054688
0.3252
0.52002
0.58496
0.62012
0.64502
0.66016
0.58984
0.5752
0.56982
0.58984
0.60986
0.59521
0.60498
0.58008
0.59521
0.60986
0.61475
0.56982
0.56006
0.54004
0.54492
0.5249
0.4502
0.4248
0.45508
0.4751
0.45996
0.40479
0.4248
0.43018
0.45996
0.46484
0.41504
0.3999
0.44482
0.43506
0.4751
0.47021
0.49512
0.47021
0.49512
0.52002
0.52979
0.50488
0.5
0.51514
0.52979
0.53516
0.5
0.51514
0.48486
0.51514
0.50977
0.5
0.50488
0.51514
0.50977
0.53516
0.54004
0.5249
0.50488
0.49512
0.53516
0.54492
0.55518
0.53516
0.5752
0.52979
0.50977
0.5752
0.58008
0.54004
0.56494
0.52002
0.52979
0.53516
0.56494
0.56006
0.56982
0.55518
0.56006
0.38525
0.16016
-0.054688
-0.084961
0.26514
0.54004
0.60986
0.59521
0.60986
0.60986
0.625
0.6001
0.5752
0.58984
0.625
0.64502
0.60498
0.56006
0.54004
0.54492
0.58984
0.56494
0.56494
0.54004
0.56006
0.56494
0.5249
0.47998
0.43994
0.4248
0.43506
0.38525
0.3999
0.41016
0.39014
0.41504
0.40479
0.43994
0.43994
0.46484
0.47021
0.45508
0.44482
0.47021
0.5
0.4751
0.47998
0.46484
0.49512
0.48486
0.49512
0.52002
0.50977
0.50488
0.53516
0.5
0.49023
0.51514
0.5249
0.51514
0.45508
0.50488
0.52979
0.50977
0.53516
0.50977
0.53516
0.49512
0.5249
0.54492
0.52979
0.55518
0.5752
0.51514
0.53516
0.56494
0.5498
0.53516
0.52002
0.54004
0.52002
0.5498
0.55518
0.53516
0.52002
0.5498
0.54004
0.54492
0.50977
0.54004
0.52979
0.54492
0.52002
0.54492
0.55518
0.56494
0.54492
0.54492
0.54004
0.52002
0.53516
0.50488
0.48486
0.56006
0.58496
0.29004
0.050293
-0.10986
0.035156
0.35986
0.55518
0.62988
0.62012
0.63477
0.58984
0.5752
0.60986
0.58984
0.54004
0.53516
0.56982
0.54492
0.6001
0.56982
0.58984
0.61475
0.56982
0.52979
0.53516
0.5
0.47021
0.44482
0.47998
0.48486
0.4502
0.39502
0.36523
0.38525
0.37988
0.41992
0.41016
0.4248
0.43994
0.44482
0.41992
0.45508
0.44482
0.47021
0.49023
0.48486
0.46484
0.44482
0.45996
0.49512
0.52002
0.49023
0.48486
0.50977
0.53516
0.50488
0.49023
0.5
0.50977
0.5
0.54492
0.47021
0.4751
0.49023
0.52979
0.54492
0.5
0.52002
0.54004
0.52002
0.54492
0.5249
0.56494
0.56982
0.52979
0.5498
0.52002
0.50977
0.52979
0.5
0.47021
0.50977
0.52979
0.50977
0.58496
0.54004
0.52979
0.56494
0.52979
0.53516
0.52002
0.54004
0.55518
0.54004
0.55518
0.49023
0.29492
0.035156
-0.125
0.010254
0.35986
0.56982
0.62012
0.64014
0.58496
0.55518
0.6001
0.61475
0.58496
0.56494
0.55518
0.60986
0.58496
0.56982
0.5752
0.56006
0.5249
0.5
0.49512
0.5498
0.53516
0.50488
0.47998
0.4751
0.44482
0.43506
0.41992
0.41504
0.43994
0.3999
0.41016
0.39014
0.41992
0.41504
0.45508
0.41504
0.43506
0.41504
0.44482
0.51514
0.50488
0.49512
0.54492
0.50977
0.47021
0.51514
0.51514
0.5249
0.52979
0.50977
0.48486
0.50488
0.44482
0.4502
0.31006
0.084961
-0.099609
-0.22461
-0.33496
-0.36963
-0.27002
-0.16992
-0.074707
0.015137
0.055176
0.20508
0.41992
0.68506
0.80469
0.83008
0.84473
0.87012
0.88477
0.90479
0.87012
0.89014
0.91504
0.89502
0.87012
0.90967
0.90479
0.91504
0.86475
0.85498
0.87012
0.875
0.84473
0.87012
0.7749
0.76514
0.73975
0.74512
0.70996
0.69482
0.65479
0.60498
0.56982
0.56494
0.54004
0.54004
0.50488
0.49023
0.46484
0.5
0.47021
0.45996
0.43506
0.51514
0.46484
0.49512
0.47021
0.5
0.46484
0.44482
0.49023
0.44482
0.45996
0.4751
0.4751
0.47021
0.51514
0.52002
0.5
0.5249
0.47021
0.47998
0.52979
0.54492
0.49512
0.48486
0.50977
0.52002
0.51514
0.53516
0.52002
0.5249
0.48486
0.49512
0.49023
0.54004
0.55518
0.51514
0.47021
0.49023
0.49023
0.5249
0.52002
0.56494
0.51514
0.5
0.5
0.49023
0.47998
0.50488
0.52979
0.56006
0.52979
0.48486
0.27002
0.015137
-0.12988
0.050293
0.37988
0.5498
0.58984
0.61475
0.60498
0.61475
0.58008
0.59521
0.6001
0.56494
0.5498
0.54004
0.56982
0.55518
0.5498
0.56494
0.56982
0.5498
0.54004
0.54492
0.51514
0.46484
0.4502
0.45508
0.44482
0.45508
0.39014
0.37988
0.375
0.40479
0.35498
0.34521
0.375
0.3999
0.39014
0.43018
0.4248
0.43994
0.39502
0.43506
0.48486
0.49512
0.46484
0.47021
0.41992
0.5249
0.52979
0.47021
0.49023
0.49512
0.50488
0.52002
0.53516
0.50488
0.49512
0.52002
0.5249
0.50977
0.53516
0.51514
0.52002
0.48486
0.5
0.49023
0.54492
0.52002
0.5249
0.54492
0.58008
0.56006
0.54004
0.56982
0.56494
0.56006
0.56494
0.52002
0.50977
0.54004
0.50977
0.53516
0.5249
0.52002
0.54004
0.5498
0.58008
0.62012
0.50977
0.24512
-0.034668
-0.11963
0.18506
0.46484
0.5752
0.60498
0.60986
0.62988
0.56982
0.58496
0.6001
0.61475
0.62988
0.6001
0.58008
0.58984
0.56494
0.56982
0.58496
0.56006
0.50977
0.49512
0.54004
0.47021
0.5
0.47998
0.47998
0.43506
0.41016
0.41504
0.4248
0.39502
0.4248
0.43018
0.41992
0.4248
0.44482
0.43994
0.45996
0.47021
0.4248
0.47998
0.52002
0.5249
0.47998
0.47021
0.49023
0.49023
0.52002
0.49512
0.50488
0.50977
0.47998
0.54004
0.52002
0.52002
0.51514
0.52002
0.48486
0.50488
0.48486
0.52979
0.53516
0.51514
0.54004
0.52979
0.5
0.53516
0.5498
0.56494
0.52979
0.50977
0.5498
0.5
0.49023
0.54004
0.54004
0.54004
0.5498
0.52002
0.5249
0.53516
0.58496
0.56006
0.56494
0.52002
0.49512
0.52979
0.5498
0.53516
0.51514
0.5498
0.56006
0.58496
0.38525
0.11523
-0.10498
-0.10986
0.33008
0.54004
0.60498
0.62012
0.63477
0.60498
0.56494
0.56982
0.58496
0.54492
0.54004
0.58984
0.56006
0.58984
0.6001
0.59521
0.625
0.52979
0.54004
0.5498
0.53516
0.51514
0.45996
0.44482
0.47998
0.41992
0.37988
0.375
0.41504
0.4248
0.41016
0.3999
0.39014
0.4248
0.44482
0.4751
0.4502
0.43018
0.46484
0.4751
0.49512
0.47021
0.47998
0.46484
0.5
0.47021
0.52002
0.5249
0.4751
0.49512
0.47021
0.52002
0.50488
0.49512
0.50977
0.49023
0.55518
0.52002
0.47998
0.51514
0.47998
0.52979
0.5249
0.5498
0.56006
0.50488
0.5
0.56982
0.58496
0.5249
0.56982
0.58496
0.55518
0.52979
0.50977
0.52002
0.56494
0.56982
0.52002
0.50488
0.55518
0.5498
0.54004
0.52979
0.60498
0.49512
0.25
0.015137
-0.099609
0.13525
0.41016
0.59521
0.66016
0.66992
0.58984
0.5752
0.56494
0.58984
0.6001
0.60986
0.56494
0.58008
0.60986
0.60498
0.58984
0.61475
0.56982
0.55518
0.5249
0.5498
0.48486
0.49023
0.44482
0.47021
0.41992
0.3999
0.44482
0.41992
0.41992
0.39502
0.43018
0.3999
0.43994
0.43018
0.43994
0.41504
0.4248
0.4248
0.46484
0.49023
0.51514
0.54492
0.54492
0.5249
0.50488
0.53516
0.52002
0.49512
0.51514
0.49023
0.50488
0.52002
0.50977
0.52002
0.45996
0.5498
0.52002
0.51514
0.5
0.55518
0.50977
0.49512
0.53516
0.5498
0.53516
0.56494
0.56494
0.56982
0.56494
0.54492
0.51514
0.54004
0.5249
0.52002
0.52002
0.54004
0.52979
0.56006
0.52002
0.6001
0.54492
0.58008
0.56494
0.5498
0.55518
0.54004
0.5752
0.53516
0.54492
0.50488
0.47021
0.51514
0.54004
0.52002
0.49023
0.53516
0.56006
0.54004
0.51514
0.52002
0.5249
0.54004
0.5498
0.50977
0.50488
0.53516
0.49512
0.5
0.49023
0.52002
0.48486
0.58008
0.49023
0.25
-0.0097656
-0.12988
0.090332
0.3999
0.58984
0.63477
0.6001
0.56494
0.59521
0.56982
0.52979
0.51514
0.56006
0.56982
0.53516
0.5752
0.58496
0.56494
0.56982
0.5498
0.51514
0.52002
0.50977
0.52002
0.50488
0.45508
0.4248
0.41504
0.44482
0.39502
0.38525
0.375
0.375
0.375
0.39502
0.375
0.36523
0.37988
0.41504
0.44482
0.43994
0.43018
0.45996
0.48486
0.4751
0.54492
0.50488
0.47998
0.45508
0.49023
0.49512
0.48486
0.49023
0.47021
0.49512
0.50977
0.5249
0.50488
0.49512
0.5249
0.48486
0.51514
0.52979
0.5
0.41504
0.30518
0.22021
0.035156
-0.11963
-0.20459
-0.25
-0.25488
-0.17969
-0.074707
0.024902
0.010254
0.13525
0.33008
0.58008
0.75488
0.81982
0.83496
0.88477
0.85986
0.86475
0.84473
0.88477
0.89014
0.85498
0.88477
0.89502
0.85986
0.87988
0.91504
0.93506
0.91504
0.89502
0.89014
0.91504
0.82471
0.81006
0.84473
0.75488
0.70508
0.70508
0.68018
0.6748
0.66016
0.62012
0.5498
0.53516
0.56494
0.51514
0.5
0.51514
0.4751
0.43018
0.46484
0.45996
0.46484
0.44482
0.4751
0.49023
0.46484
0.45508
0.41992
0.45508
0.44482
0.49023
0.4502
0.47998
0.46484
0.47021
0.49512
0.50977
0.51514
0.46484
0.49512
0.50488
0.47998
0.4751
0.48486
0.50488
0.46484
0.5249
0.54004
0.4751
0.52979
0.47021
0.4751
0.5249
0.50488
0.4751
0.49512
0.48486
0.51514
0.45996
0.48486
0.4751
0.54004
0.4751
0.47021
0.49023
0.5249
0.49512
0.4751
0.5249
0.53516
0.5
0.49512
0.52979
0.5498
0.48486
0.47998
0.52002
0.54004
0.47021
0.45508
0.48486
0.5
0.49023
0.52002
0.5
0.48486
0.46484
0.51514
0.50977
0.52979
0.50977
0.49512
0.5
0.52002
0.47998
0.375
0.13525
-0.11475
-0.15967
0.22021
0.51514
0.625
0.6499
0.66016
0.60498
0.56982
0.52979
0.54492
0.58496
0.54492
0.51514
0.54004
0.50977
0.56006
0.56982
0.58496
0.54492
0.5498
0.52979
0.5498
0.4751
0.47998
0.44482
0.4248
0.43994
0.3999
0.35498
0.33496
0.37012
0.35986
0.37988
0.35498
0.3501
0.33496
0.4248
0.3999
0.43506
0.41016
0.41016
0.44482
0.43994
0.43018
0.51514
0.52002
0.44482
0.45996
0.47998
0.49023
0.51514
0.52979
0.48486
0.49023
0.45508
0.50488
0.55518
0.5249
0.47021
0.49512
0.52002
0.52979
0.5
0.54004
0.54492
0.53516
0.49023
0.50488
0.5249
0.54492
0.50488
0.56006
0.58496
0.52979
0.51514
0.52979
0.54492
0.53516
0.54004
0.51514
0.55518
0.52979
0.56494
0.53516
0.52979
0.5498
0.52002
0.54004
0.5249
0.54492
0.56494
0.4751
0.20508
-0.060059
-0.125
0.15527
0.43506
0.62012
0.66016
0.62012
0.58984
0.60986
0.58984
0.58008
0.58984
0.56006
0.56494
0.58496
0.54004
0.56494
0.56982
0.56006
0.59521
0.54492
0.55518
0.56006
0.47021
0.47998
0.46484
0.44482
0.46484
0.41504
0.39014
0.3999
0.35986
0.39014
0.3999
0.41016
0.4502
0.4248
0.40479
0.48486
0.5249
0.45996
0.43994
0.45996
0.46484
0.5
0.55518
0.51514
0.5
0.46484
0.48486
0.49512
0.51514
0.53516
0.56006
0.49023
0.47998
0.52979
0.5498
0.52979
0.49023
0.52979
0.54004
0.54492
0.49023
0.50488
0.5752
0.56494
0.50488
0.5249
0.55518
0.5249
0.56982
0.54004
0.55518
0.53516
0.56494
0.5752
0.54492
0.52002
0.56494
0.52002
0.52002
0.53516
0.56494
0.50977
0.47998
0.55518
0.54492
0.56494
0.56006
0.56494
0.51514
0.52979
0.5249
0.5498
0.56494
0.51514
0.50977
0.5249
0.53516
0.52002
0.51514
0.55518
0.51514
0.45996
0.50488
0.56494
0.51514
0.5249
0.50977
0.5
0.54004
0.49023
0.5249
0.56006
0.52979
0.5249
0.54004
0.375
0.10498
-0.094727
-0.12988
0.28027
0.52002
0.61475
0.63477
0.58984
0.6001
0.625
0.58496
0.58008
0.61475
0.56494
0.58984
0.5752
0.58984
0.5752
0.54004
0.53516
0.5498
0.52002
0.5
0.56982
0.5498
0.49512
0.49512
0.44482
0.41992
0.39502
0.4248
0.39014
0.41016
0.33496
0.33008
0.375
0.38525
0.3999
0.39502
0.45996
0.4248
0.3999
0.44482
0.47021
0.49512
0.53516
0.5249
0.52979
0.50977
0.51514
0.45996
0.4502
0.52002
0.49512
0.45508
0.47998
0.50488
0.54004
0.53516
0.52002
0.49023
0.52002
0.56494
0.56006
0.52002
0.47998
0.4751
0.51514
0.53516
0.50977
0.52002
0.52979
0.56494
0.54492
0.56494
0.54492
0.54004
0.5498
0.54004
0.58984
0.53516
0.51514
0.5498
0.54492
0.56982
0.56494
0.60498
0.43506
0.125
-0.089844
-0.14502
0.18018
0.5249
0.64502
0.66016
0.625
0.61475
0.66992
0.59521
0.58008
0.63477
0.61475
0.58984
0.56494
0.52979
0.58008
0.59521
0.59521
0.56982
0.56006
0.58008
0.50977
0.52002
0.5249
0.50488
0.50977
0.40479
0.3999
0.41016
0.38525
0.40479
0.37012
0.4248
0.43018
0.40479
0.4248
0.46484
0.43506
0.45996
0.50977
0.54004
0.52002
0.4751
0.5
0.47998
0.50488
0.49023
0.52002
0.53516
0.49512
0.52002
0.50977
0.50488
0.52002
0.50488
0.52002
0.53516
0.54004
0.5249
0.50488
0.5
0.53516
0.54492
0.49023
0.47998
0.5498
0.5249
0.50488
0.51514
0.55518
0.56494
0.52979
0.56006
0.49512
0.51514
0.54492
0.60498
0.56006
0.35986
0.044922
-0.11963
0.060059
0.375
0.56494
0.64014
0.62988
0.64014
0.625
0.60986
0.58008
0.61475
0.5752
0.56494
0.58008
0.56006
0.54004
0.56006
0.56494
0.5498
0.58496
0.54004
0.53516
0.59521
0.51514
0.50977
0.43994
0.41992
0.43994
0.38525
0.37988
0.41504
0.41016
0.39502
0.43018
0.43994
0.41504
0.43018
0.45996
0.50488
0.51514
0.49023
0.47998
0.5249
0.50977
0.52002
0.51514
0.48486
0.49512
0.49512
0.50488
0.4751
0.4502
0.5249
0.54004
0.50977
0.49512
0.49023
0.50488
0.54492
0.56494
0.54004
0.56006
0.5498
0.54004
0.56494
0.56982
0.50977
0.52002
0.50977
0.56006
0.53516
0.54004
0.56006
0.54004
0.54492
0.56494
0.54004
0.5249
0.52002
0.56494
0.5498
0.56006
0.54492
0.56494
0.54004
0.56006
0.51514
0.52002
0.52002
0.54492
0.54004
0.54492
0.52979
0.53516
0.52979
0.5249
0.51514
0.56006
0.54492
0.49512
0.50488
0.55518
0.56006
0.54004
0.56494
0.24023
-0.014648
-0.099609
0.16504
0.43506
0.5752
0.68018
0.63477
0.58984
0.60498
0.59521
0.58008
0.59521
0.56982
0.54004
0.55518
0.59521
0.5752
0.54004
0.56494
0.52979
0.53516
0.52002
0.52979
0.54004
0.49023
0.46484
0.49512
0.43994
0.3999
0.43506
0.39014
0.41504
0.39014
0.38525
0.3999
0.39014
0.43018
0.41992
0.44482
0.3999
0.40479
0.39502
0.38525
0.44482
0.52002
0.50488
0.5
0.49512
0.52979
0.52002
0.5249
0.53516
0.5249
0.49512
0.49512
0.47998
0.54492
0.55518
0.50977
0.43994
0.47998
0.5249
0.53516
0.49512
0.52979
0.54492
0.5249
0.52979
0.52979
0.54492
0.56982
0.60498
0.56982
0.58008
0.5498
0.54492
0.5752
0.54004
0.53516
0.51514
0.56006
0.56982
0.54004
0.5498
0.54492
0.58984
0.56982
0.54004
0.56006
0.56494
0.5249
0.51514
0.54492
0.56494
0.5249
0.55518
0.54004
0.55518
0.56494
0.35498
0.080078
-0.10986
0.015137
0.33984
0.56494
0.66504
0.68018
0.61475
0.62012
0.56982
0.60986
0.58496
0.54004
0.6001
0.58496
0.6001
0.56982
0.5752
0.58496
0.5498
0.54492
0.54004
0.56006
0.52979
0.54004
0.49023
0.47998
0.46484
0.4248
0.44482
0.39502
0.37012
0.39014
0.36523
0.37988
0.375
0.4248
0.4248
0.45508
0.44482
0.45996
0.49512
0.47998
0.50488
0.52002
0.52002
0.49023
0.48486
0.53516
0.49512
0.5
0.50488
0.49512
0.50977
0.49512
0.5249
0.5
0.49512
0.50488
0.47998
0.50977
0.53516
0.51514
0.50977
0.5498
0.54004
0.56006
0.54492
0.5249
0.54004
0.49512
0.55518
0.56982
0.52979
0.54492
0.58496
0.55518
0.52002
0.52002
0.53516
0.52979
0.56006
0.5752
0.51514
0.52002
0.53516
0.49512
0.48486
0.58008
0.56006
0.50977
0.50488
0.54492
0.56006
0.36523
0.1001
-0.12988
-0.1499
0.29004
0.56982
0.63477
0.63477
0.60986
0.61475
0.58008
0.58984
0.6001
0.59521
0.62012
0.58496
0.56982
0.56006
0.56982
0.55518
0.55518
0.5249
0.54004
0.50488
0.49512
0.50488
0.45996
0.5
0.45996
0.41992
0.40479
0.41504
0.41016
0.43506
0.39502
0.37012
0.34521
0.37988
0.4248
0.43994
0.4502
0.47998
0.46484
0.45508
0.47998
0.47021
0.5
0.54004
0.50977
0.50488
0.52979
0.55518
0.47021
0.45996
0.50977
0.49512
0.50977
0.49512
0.48486
0.52002
0.56006
0.5249
0.50977
0.51514
0.5
0.49512
0.55518
0.5752
0.5498
0.56006
0.52979
0.50977
0.53516
0.56006
0.54492
0.54004
0.5498
0.52979
0.52002
0.53516
0.5498
0.54004
0.5752
0.58496
0.53516
0.55518
0.56494
0.49512
0.53516
0.5249
0.52002
0.5498
0.53516
0.5
0.51514
0.5498
0.54004
0.5249
0.56982
0.5752
0.5249
0.54004
0.52979
0.54004
0.49512
0.54492
0.5498
0.49512
0.50488
0.53516
0.51514
0.52002
0.54004
0.49023
0.45508
0.52979
0.56982
0.50488
0.5752
0.52979
0.48486
0.47021
0.50977
0.5249
0.5498
0.49512
0.3252
0.080078
-0.099609
-0.10498
0.2749
0.55518
0.625
0.60986
0.61475
0.56982
0.5752
0.60986
0.58496
0.56494
0.58008
0.58496
0.5498
0.56982
0.54004
0.55518
0.55518
0.54004
0.56494
0.52002
0.52002
0.52979
0.4751
0.46484
0.44482
0.43506
0.38525
0.37012
0.39502
0.35498
0.35498
0.3999
0.35986
0.37988
0.38525
0.41504
0.39502
0.39014
0.41016
0.46484
0.50977
0.4751
0.5
0.45996
0.52002
0.5249
0.4751
0.52002
0.52979
0.46484
0.47998
0.5
0.5
0.51514
0.46484
0.49512
0.51514
0.5249
0.51514
0.54004
0.49512
0.54004
0.52002
0.5249
0.53516
0.55518
0.51514
0.54004
0.51514
0.53516
0.5
0.49023
0.54004
0.6001
0.60498
0.54004
0.54004
0.54492
0.55518
0.54004
0.54004
0.54492
0.58496
0.47998
0.22998
-0.02002
-0.084961
0.14014
0.43018
0.62012
0.6748
0.66504
0.61475
0.59521
0.61475
0.6001
0.56494
0.56006
0.55518
0.58008
0.56494
0.5752
0.58496
0.56006
0.56982
0.59521
0.5752
0.54004
0.54492
0.5
0.48486
0.46484
0.43994
0.4248
0.38525
0.3999
0.37988
0.3999
0.375
0.38525
0.45508
0.47021
0.41992
0.48486
0.44482
0.43994
0.47021
0.50488
0.52979
0.52002
0.45508
0.43994
0.50977
0.50488
0.5249
0.49023
0.5249
0.50488
0.56494
0.5
0.47998
0.48486
0.52979
0.49512
0.51514
0.50488
0.52002
0.52002
0.50977
0.5249
0.54004
0.5249
0.50488
0.55518
0.54004
0.54004
0.53516
0.58008
0.58984
0.5249
0.5
0.51514
0.52979
0.53516
0.52002
0.55518
0.50977
0.52002
0.50488
0.5752
0.58984
0.53516
0.50488
0.52002
0.56006
0.54004
0.54492
0.51514
0.53516
0.50977
0.53516
0.52002
0.54004
0.5249
0.53516
0.54492
0.53516
0.49023
0.5
0.5249
0.56494
0.5752
0.39502
0.1499
-0.080078
-0.125
0.24023
0.5
0.65479
0.64014
0.58496
0.60498
0.61475
0.56982
0.54004
0.58496
0.55518
0.56006
0.56982
0.58008
0.58008
0.55518
0.56494
0.55518
0.56006
0.56494
0.5
0.47998
0.44482
0.4502
0.47998
0.43506
0.3999
0.39014
0.3999
0.40479
0.37988
0.43506
0.3999
0.375
0.39502
0.38525
0.41504
0.41016
0.44482
0.43506
0.47998
0.46484
0.49023
0.4751
0.50977
0.49512
0.5
0.49512
0.51514
0.5
0.54492
0.5
0.53516
0.50488
0.47021
0.4751
0.51514
0.52002
0.50977
0.52002
0.50488
0.5249
0.52979
0.51514
0.5
0.54492
0.5498
0.54004
0.54492
0.5249
0.54492
0.53516
0.54492
0.58496
0.52002
0.52979
0.54004
0.50488
0.49512
0.56982
0.54492
0.53516
0.54004
0.5249
0.54004
0.52979
0.56494
0.56006
0.5498
0.56494
0.50977
0.53516
0.52979
0.50488
0.54004
0.54004
0.52979
0.53516
0.50977
0.54492
0.5249
0.52002
0.53516
0.50977
0.50488
0.52002
0.52979
0.54004
0.54004
0.5249
0.5
0.5249
0.52002
0.5249
0.49512
0.50488
0.51514
0.52002
0.46484
0.54492
0.58008
0.49023
0.20996
-0.060059
-0.16992
0.16992
0.44482
0.5498
0.62012
0.59521
0.6001
0.5752
0.55518
0.58984
0.60986
0.58984
0.56494
0.56982
0.60986
0.6001
0.56494
0.54492
0.54004
0.5249
0.54004
0.49023
0.49512
0.4751
0.46484
0.4502
0.41992
0.43506
0.43994
0.38525
0.37012
0.3999
0.38525
0.3999
0.4248
0.39502
0.38525
0.4248
0.4502
0.4248
0.43506
0.45996
0.43506
0.45508
0.43506
0.49023
0.51514
0.49023
0.50488
0.48486
0.55518
0.56006
0.5249
0.54492
0.47021
0.49023
0.49512
0.50977
0.47021
0.52002
0.5
0.50977
0.52002
0.49512
0.54004
0.51514
0.49512
0.49023
0.53516
0.55518
0.53516
0.54004
0.56982
0.58496
0.53516
0.55518
0.54492
0.58984
0.56006
0.52979
0.52002
0.54004
0.50977
0.49512
0.56006
0.56494
0.51514
0.54004
0.5
0.5249
0.58496
0.54492
0.51514
0.52002
0.52002
0.53516
0.54492
0.50977
0.52979
0.50977
0.54004
0.50977
0.49512
0.49023
0.50488
0.5
0.53516
0.54004
0.51514
0.50977
0.50488
0.54004
0.52979
0.50977
0.51514
0.47021
0.50488
0.51514
0.49512
0.52979
0.56006
0.50488
0.33008
0.064941
-0.12988
-0.14502
0.26025
0.52002
0.61475
0.625
0.58008
0.58496
0.54004
0.6001
0.58496
0.55518
0.56494
0.5752
0.5498
0.55518
0.54004
0.54492
0.56006
0.56006
0.52979
0.52002
0.50488
0.49023
0.47998
0.45996
0.46484
0.4248
0.40479
0.37988
0.35498
0.375
0.36523
0.38525
0.41016
0.38525
0.35498
0.39502
0.4248
0.41504
0.45508
0.47021
0.46484
0.5
0.50488
0.45996
0.4751
0.5249
0.53516
0.49512
0.49023
0.47998
0.48486
0.5
0.47998
0.52979
0.54492
0.50488
0.48486
0.50977
0.53516
0.56006
0.51514
0.52002
0.50977
0.52979
0.5249
0.55518
0.52002
0.53516
0.51514
0.52002
0.5498
0.56494
0.54492
0.54004
0.5249
0.56006
0.56494
0.5498
0.53516
0.54004
0.54492
0.50977
0.5498
0.58496
0.5249
0.51514
0.50977
0.5752
0.53516
0.54004
0.5498
0.52002
0.56494
0.5498
0.58984
0.59521
0.39014
0.10498
-0.069824
-0.10986
0.24023
0.49023
0.625
0.64502
0.61475
0.60986
0.58496
0.5752
0.60498
0.58008
0.6001
0.58984
0.5752
0.58984
0.5752
0.56494
0.56982
0.56006
0.55518
0.5249
0.52002
0.49512
0.47021
0.47998
0.43994
0.41992
0.36523
0.39502
0.38525
0.41992
0.39502
0.40479
0.41016
0.41992
0.43994
0.45996
0.4502
0.3999
0.43018
0.45996
0.45508
0.49023
0.52002
0.47021
0.52979
0.54004
0.52002
0.49512
0.54004
0.49023
0.46484
0.52002
0.51514
0.50977
0.49512
0.49023
0.51514
0.50488
0.52002
0.52002
0.53516
0.52979
0.54492
0.56006
0.54492
0.56006
0.52979
0.53516
0.54004
0.56494
0.55518
0.53516
0.54004
0.5498
0.54492
0.5498
0.54492
0.56982
0.55518
0.56494
0.5498
0.56006
0.53516
0.55518
0.5752
0.4502
0.20508
-0.049805
-0.11963
0.16992
0.48486
0.60986
0.63477
0.63477
0.61475
0.5752
0.63477
0.61475
0.59521
0.58496
0.60986
0.59521
0.6001
0.56006
0.55518
0.54004
0.5498
0.53516
0.50977
0.56006
0.52002
0.50488
0.47021
0.45996
0.47998
0.41992
0.4248
0.375
0.38525
0.3501
0.37988
0.40479
0.375
0.41504
0.43994
0.44482
0.43506
0.45996
0.51514
0.47021
0.50488
0.54004
0.52002
0.51514
0.52002
0.50488
0.53516
0.47021
0.5
0.52002
0.5
0.50488
0.56006
0.51514
0.52002
0.49512
0.49023
0.56006
0.56494
0.54492
0.56982
0.5249
0.50977
0.5
0.52002
0.51514
0.56006
0.54004
0.52979
0.49023
0.54004
0.58008
0.5498
0.56494
0.54492
0.59521
0.63477
0.54492
0.30518
0.055176
-0.080078
0.12988
0.3999
0.5498
0.58984
0.5752
0.61475
0.62988
0.60986
0.58496
0.6001
0.60986
0.58984
0.60986
0.6001
0.56982
0.56494
0.5498
0.55518
0.53516
0.5498
0.51514
0.52979
0.51514
0.49023
0.46484
0.45508
0.43018
0.36523
0.43018
0.40479
0.41016
0.41016
0.41992
0.43994
0.44482
0.41504
0.47021
0.45996
0.44482
0.48486
0.49512
0.46484
0.49512
0.4751
0.5249
0.49512
0.5
0.52979
0.54004
0.51514
0.51514
0.52979
0.56006
0.50977
0.48486
0.53516
0.5
0.49023
0.49512
0.49512
0.54492
0.55518
0.52002
0.5
0.50488
0.56006
0.5752
0.54004
0.56006
0.6001
0.40479
0.18506
-0.040039
-0.069824
0.3252
0.5498
0.59521
0.62012
0.58984
0.625
0.58984
0.58496
0.625
0.65479
0.6001
0.56982
0.58496
0.56494
0.60498
0.62988
0.58984
0.58008
0.54004
0.52002
0.5249
0.53516
0.52979
0.49023
0.45508
0.41992
0.4248
0.41992
0.4502
0.41504
0.43994
0.3999
0.39014
0.41016
0.47021
0.48486
0.45508
0.47998
0.47998
0.45508
0.5249
0.53516
0.51514
0.49512
0.54004
0.50977
0.49512
0.53516
0.54004
0.51514
0.4751
0.46484
0.51514
0.52979
0.54492
0.51514
0.52002
0.49512
0.49023
0.52002
0.54492
0.55518
0.49512
0.56006
0.56494
0.53516
0.5498
0.54004
0.59521
0.52979
0.5498
0.53516
0.61475
0.63477
0.41016
0.1001
-0.080078
0.024902
0.34521
0.54004
0.625
0.63477
0.64502
0.61475
0.60986
0.625
0.64014
0.60498
0.56006
0.54004
0.58008
0.60986
0.60986
0.59521
0.56982
0.6001
0.56494
0.52979
0.5498
0.54004
0.51514
0.45996
0.4502
0.49023
0.41504
0.40479
0.4248
0.43506
0.41016
0.4248
0.3999
0.41016
0.45508
0.4248
0.43994
0.47021
0.45508
0.49023
0.51514
0.5249
0.52979
0.5
0.52979
0.52002
0.51514
0.5
0.49023
0.46484
0.51514
0.5
0.52002
0.53516
0.49512
0.54004
0.49512
0.54004
0.54492
0.51514
0.52002
0.47998
0.52002
0.54492
0.56982
0.58008
0.54492
0.56494
0.52979
0.5498
0.54004
0.5249
0.60498
0.61475
0.24512
0.0048828
-0.10986
0.24023
0.45996
0.59521
0.625
0.60498
0.58008
0.59521
0.58984
0.62988
0.58984
0.59521
0.58984
0.60498
0.62012
0.59521
0.62012
0.54492
0.53516
0.56006
0.54004
0.56494
0.58008
0.5
0.54004
0.48486
0.43994
0.45996
0.43018
0.41504
0.39502
0.4248
0.43506
0.43506
0.45508
0.46484
0.44482
0.46484
0.45996
0.4502
0.5
0.51514
0.4751
0.50488
0.49512
0.49512
0.48486
0.5
0.51514
0.52002
0.4751
0.47021
0.49023
0.49512
0.47021
0.49023
0.50977
0.54492
0.4751
0.45508
0.52002
0.54004
0.48486
0.51514
0.50488
0.53516
0.51514
0.50977
0.52002
0.52979
0.52002
0.54004
0.54492
0.52002
0.52979
0.54004
0.55518
0.54004
0.54492
0.53516
0.54004
0.52002
0.54004
0.54004
0.53516
0.54004
0.49512
0.5
0.5249
0.5498
0.61475
0.52002
0.30518
0.080078
-0.080078
0.030273
0.30518
0.53516
0.64014
0.68018
0.60498
0.58984
0.55518
0.58984
0.60986
0.56982
0.52979
0.51514
0.625
0.6001
0.56006
0.58496
0.59521
0.6001
0.53516
0.54004
0.58984
0.50977
0.4502
0.44482
0.44482
0.40479
0.41992
0.3999
0.43018
0.43994
0.38525
0.43994
0.45508
0.41992
0.43994
0.41992
0.4502
0.47021
0.48486
0.45996
0.44482
0.5
0.50977
0.47021
0.52979
0.48486
0.4751
0.52002
0.52979
0.49512
0.49512
0.50977
0.49023
0.52002
0.52979
0.5
0.56006
0.50488
0.5498
0.52979
0.49512
0.49023
0.51514
0.50488
0.54004
0.52002
0.54492
0.58496
0.58984
0.54004
0.5752
0.63477
0.60986
0.36523
0.095215
-0.11963
0.030273
0.33008
0.54492
0.61475
0.6499
0.62012
0.60986
0.60986
0.62988
0.63477
0.59521
0.56006
0.62988
0.58984
0.60498
0.61475
0.58984
0.58496
0.55518
0.54492
0.58984
0.51514
0.50977
0.4502
0.46484
0.46484
0.44482
0.43018
0.43994
0.43018
0.41504
0.4502
0.43018
0.43994
0.4502
0.43018
0.44482
0.51514
0.5
0.49023
0.50977
0.52002
0.47021
0.4751
0.48486
0.52002
0.50488
0.52002
0.52979
0.50488
0.48486
0.51514
0.5498
0.52002
0.5249
0.5
0.52002
0.50488
0.5249
0.47998
0.5249
0.5498
0.52979
0.56494
0.56006
0.54004
0.54492
0.56494
0.58496
0.56006
0.53516
0.5249
0.52002
0.5498
0.53516
0.52979
0.54004
0.50488
0.56006
0.56494
0.53516
0.5498
0.54492
0.56494
0.54004
0.54492
0.56494
0.54004
0.52002
0.5498
0.58496
0.54004
0.31494
0.064941
-0.13477
0.02002
0.33984
0.52979
0.64502
0.66504
0.63477
0.60498
0.58496
0.61475
0.58984
0.6001
0.55518
0.54492
0.60498
0.58008
0.56006
0.58984
0.55518
0.5498
0.56006
0.51514
0.50977
0.52002
0.49512
0.47021
0.45996
0.41504
0.39502
0.41504
0.39014
0.35986
0.37988
0.3999
0.375
0.39502
0.41992
0.3999
0.44482
0.4751
0.46484
0.5
0.50977
0.49023
0.45996
0.47021
0.49023
0.50488
0.4751
0.46484
0.54004
0.5498
0.49023
0.47021
0.50488
0.51514
0.54004
0.50488
0.47021
0.48486
0.52002
0.50488
0.52002
0.5
0.52002
0.5
0.56494
0.5249
0.54492
0.56982
0.5752
0.50977
0.50488
0.55518
0.58496
0.54004
0.49512
0.51514
0.5
0.49512
0.52002
0.5498
0.58008
0.60498
0.5249
0.51514
0.56494
0.5752
0.52002
0.56494
0.5
0.49512
0.52002
0.52979
0.49512
0.52979
0.5
0.52979
0.54492
0.55518
0.49512
0.51514
0.53516
0.5
0.54004
0.54492
0.5249
0.51514
0.52002
0.4751
0.47021
0.53516
0.5
0.48486
0.49512
0.47998
0.50488
0.54004
0.56982
0.5249
0.28516
0.040039
-0.10986
0.055176
0.31982
0.51514
0.625
0.65479
0.60498
0.59521
0.54492
0.56494
0.58496
0.61475
0.54492
0.5752
0.58984
0.56982
0.56494
0.53516
0.54492
0.56494
0.5249
0.52002
0.50977
0.48486
0.47021
0.45996
0.4248
0.40479
0.3999
0.43018
0.43994
0.375
0.39014
0.40479
0.37988
0.40479
0.4502
0.4248
0.39502
0.43994
0.45508
0.44482
0.4751
0.50488
0.49512
0.49023
0.49512
0.48486
0.5
0.48486
0.49512
0.46484
0.50977
0.50977
0.49512
0.50488
0.52979
0.5
0.48486
0.46484
0.50977
0.53516
0.50977
0.54004
0.53516
0.54492
0.53516
0.5249
0.52979
0.52979
0.54004
0.55518
0.53516
0.54004
0.5
0.56006
0.56494
0.54004
0.58008
0.55518
0.56494
0.52979
0.52002
0.5752
0.53516
0.52002
0.51514
0.49512
0.5249
0.51514
0.53516
0.54492
0.56982
0.5752
0.52002
0.49512
0.56006
0.52979
0.56006
0.58008
0.51514
0.49023
0.47998
0.53516
0.54004
0.51514
0.50488
0.50488
0.52979
0.56494
0.54004
0.55518
0.49512
0.51514
0.52979
0.5
0.52979
0.51514
0.50488
0.52979
0.47021
0.49512
0.5498
0.56494
0.51514
0.34521
0.1001
-0.11963
-0.13965
0.30029
0.53516
0.6001
0.65479
0.61475
0.56494
0.5752
0.60498
0.58984
0.56494
0.58008
0.55518
0.5498
0.56494
0.5752
0.58496
0.56494
0.5
0.54492
0.56494
0.50488
0.47998
0.49023
0.45508
0.4248
0.39502
0.41504
0.39502
0.36523
0.37988
0.36523
0.38525
0.41992
0.3999
0.4248
0.38525
0.41504
0.4248
0.43506
0.3999
0.43994
0.47021
0.45996
0.50977
