0.20392
0.20392
0.20392
0.2098
0.21373
0.21961
0.22353
0.22941
0.22353
0.23333
0.23333
0.23922
0.2451
0.24902
0.24902
0.2549
0.25882
0.25882
0.25882
0.26471
0.25882
0.25882
0.24902
0.24902
0.24902
0.24902
0.23333
0.23333
0.22941
0.22941
0.22353
0.21961
0.21961
0.21373
0.20392
0.20392
0.2
0.19412
0.2
0.18824
0.18824
0.18431
0.18431
0.18431
0.20392
0.19412
0.2
0.19412
0.20392
0.20392
0.20392
0.20392
0.20392
0.20392
0.20392
0.20392
0.20392
0.20392
0.20392
0.20392
0.2098
0.21373
0.20392
0.21373
0.2098
0.22353
0.21961
0.22353
0.22941
0.23333
0.22353
0.22941
0.22941
0.24902
0.25882
0.27451
0.25882
0.2549
0.2451
0.23333
0.21961
0.2098
0.16471
0.11961
0.17843
0.18431
0.18824
0.14902
0.094118
0.04902
0.029412
0.039216
0.078431
0.1098
0.084314
0.062745
0.13333
0.2098
0.26863
0.27843
0.21961
0.16863
0.17843
0.17843
0.17843
0.17843
0.17843
0.17843
0.18431
0.18824
0.18824
0.19412
0.18824
0.19412
0.18824
0.19412
0.18824
0.19412
0.19412
0.20392
0.19412
0.20392
0.20392
0.2098
0.21373
0.22353
0.22941
0.22941
0.22941
0.23333
0.2451
0.24902
0.24902
0.24902
0.2549
0.2549
0.2549
0.24902
0.2549
0.24902
0.2549
0.24902
0.2451
0.23333
0.2451
0.23333
0.23333
0.22353
0.22941
0.21373
0.21961
0.2098
0.2098
0.20392
0.20392
0.19412
0.2
0.18824
0.19412
0.2
0.19412
0.19412
0.19412
0.20392
0.19412
0.20392
0.2
0.20392
0.20392
0.2098
0.2098
0.21373
0.2098
0.21373
0.20392
0.21373
0.2098
0.21373
0.21373
0.21961
0.21373
0.21961
0.21961
0.21961
0.22941
0.22353
0.23333
0.23333
0.23922
0.22941
0.22941
0.2451
0.25882
0.26863
0.27451
0.25882
0.24902
0.23333
0.22941
0.21373
0.20392
0.12353
0.15882
0.18824
0.19412
0.17451
0.12941
0.07451
0.058824
0.039216
0.068627
0.10392
0.11961
0.078431
0.1098
0.17451
0.24902
0.28431
0.26471
0.2
0.17843
0.18431
0.17843
0.18431
0.17843
0.18431
0.18431
0.19412
0.18824
0.19412
0.19412
0.2
0.19412
0.2
0.18824
0.19412
0.2
0.20392
0.20392
0.20392
0.2098
0.20392
0.21961
0.21961
0.22941
0.22941
0.2451
0.2451
0.24902
0.24902
0.25882
0.2549
0.25882
0.2549
0.25882
0.25882
0.26471
0.2549
0.25882
0.24902
0.24902
0.24902
0.24902
0.2451
0.23333
0.23922
0.22941
0.22353
0.21373
0.21961
0.20392
0.20392
0.20392
0.20392
0.2
0.2
0.18824
0.19412
0.18431
0.2
0.19412
0.2
0.19412
0.2
0.20392
0.2
0.20392
0.20392
0.20392
0.20392
0.2098
0.20392
0.2098
0.20392
0.2098
0.20392
0.21373
0.2098
0.21373
0.2098
0.21373
0.21373
0.21961
0.22353
0.22941
0.22941
0.23922
0.22941
0.22941
0.22941
0.2451
0.2549
0.26863
0.27451
0.2549
0.24902
0.2451
0.22941
0.22353
0.2098
0.11373
0.16863
0.19412
0.2
0.16471
0.098039
0.033333
0.013725
0.0078431
0.058824
0.084314
0.10392
0.033333
0.068627
0.14314
0.22941
0.27451
0.2549
0.20392
0.18431
0.19412
0.19412
0.2
0.19412
0.2
0.2
0.20392
0.2
0.20392
0.20392
0.20392
0.20392
0.2098
0.20392
0.20392
0.20392
0.2098
0.2098
0.21961
0.22353
0.22941
0.22941
0.23333
0.2451
0.24902
0.24902
0.24902
0.2549
0.25882
0.26471
0.25882
0.27451
0.26863
0.27451
0.27451
0.27451
0.27451
0.27451
0.26863
0.26863
0.26471
0.26471
0.2549
0.2549
0.24902
0.24902
0.23922
0.23922
0.22941
0.22353
0.21961
0.21373
0.2098
0.20392
0.20392
0.2
0.19412
0.19412
0.2
0.19412
0.2
0.2
0.20392
0.2
0.20392
0.20392
0.21373
0.2098
0.21961
0.21961
0.21961
0.21961
0.22353
0.21961
0.21961
0.22353
0.21961
0.22353
0.21961
0.22353
0.21961
0.22941
0.22941
0.23922
0.2451
0.24902
0.23922
0.23922
0.2451
0.25882
0.27451
0.27843
0.27451
0.26471
0.24902
0.2451
0.22353
0.22353
0.14314
0.11961
0.19412
0.2
0.18824
0.14902
0.088235
0.043137
0.033333
0.052941
0.088235
0.12353
0.088235
0.068627
0.13922
0.21373
0.26863
0.27451
0.22353
0.17451
0.18431
0.17843
0.18431
0.18431
0.18824
0.19412
0.2
0.2
0.20392
0.20392
0.2
0.20392
0.19412
0.20392
0.2
0.20392
0.20392
0.2098
0.20392
0.21373
0.21961
0.22353
0.22353
0.22941
0.22941
0.23922
0.23333
0.24902
0.24902
0.24902
0.24902
0.24902
0.2549
0.25882
0.2549
0.2549
0.25882
0.2549
0.24902
0.24902
0.24902
0.2451
0.2451
0.23333
0.22941
0.22941
0.22941
0.21373
0.21961
0.2098
0.21373
0.2098
0.2098
0.20392
0.20392
0.2
0.2
0.19412
0.19412
0.2
0.18824
0.2
0.19412
0.2
0.19412
0.2
0.19412
0.2
0.2
0.20392
0.2
0.20392
0.2
0.20392
0.20392
0.20392
0.20392
0.2098
0.20392
0.20392
0.20392
0.2098
0.21373
0.21373
0.21961
0.22941
0.22941
0.22941
0.22941
0.22941
0.24902
0.2549
0.26863
0.25882
0.2549
0.23922
0.22941
0.21373
0.2098
0.15882
0.1098
0.16471
0.18431
0.17843
0.1549
0.094118
0.058824
0.033333
0.043137
0.078431
0.12353
0.094118
0.07451
0.12941
0.20392
0.26471
0.27451
0.22353
0.16863
0.17843
0.17843
0.17843
0.17843
0.18431
0.17843
0.17843
0.17843
0.19412
0.18431
0.18824
0.17843
0.18824
0.18431
0.18824
0.19412
0.18824
0.19412
0.2
0.20392
0.20392
0.21373
0.2098
0.21961
0.22353
0.22941
0.22941
0.23922
0.23922
0.24902
0.24902
0.24902
0.24902
0.2549
0.2549
0.2549
0.24902
0.2549
0.24902
0.24902
0.2451
0.23922
0.2451
0.23333
0.23922
0.22941
0.22941
0.22353
0.21961
0.20392
0.2098
0.20392
0.20392
0.20392
0.20392
0.19412
0.19412
0.18824
0.18824
0.18824
0.18824
0.18431
0.19412
0.18824
0.19412
0.2
0.19412
0.20392
0.20392
0.20392
0.20392
0.2098
0.20392
0.2098
0.20392
0.2098
0.20392
0.2098
0.20392
0.2098
0.2098
0.21961
0.21373
0.21961
0.21373
0.22941
0.22941
0.22941
0.21961
0.22941
0.23922
0.2549
0.26471
0.26471
0.24902
0.2451
0.22941
0.21961
0.2098
0.16471
0.11373
0.16863
0.18431
0.17843
0.14902
0.078431
0.039216
0.013725
0.029412
0.062745
0.10392
0.07451
0.039216
0.094118
0.16471
0.23333
0.26863
0.22941
0.17451
0.17451
0.17843
0.17843
0.17451
0.18431
0.18824
0.19412
0.18824
0.2
0.18824
0.19412
0.18824
0.19412
0.18824
0.19412
0.2
0.20392
0.20392
0.2098
0.2098
0.21373
0.21961
0.22353
0.22941
0.22941
0.23333
0.23922
0.2451
0.2451
0.24902
0.24902
0.2549
0.2549
0.25882
0.2549
0.25882
0.24902
0.25882
0.24902
0.24902
0.24902
0.24902
0.2451
0.2451
0.23333
0.23922
0.22941
0.22941
0.22941
0.22941
0.21961
0.21373
0.20392
0.20392
0.20392
0.2
0.19412
0.18824
0.19412
0.18824
0.19412
0.18824
0.2
0.2
0.20392
0.19412
0.20392
0.2
0.20392
0.2
0.20392
0.2
0.20392
0.20392
0.20392
0.2098
0.20392
0.2098
0.20392
0.21373
0.20392
0.2098
0.20392
0.2098
0.21373
0.22941
0.22941
0.23333
0.22941
0.23922
0.23922
0.24902
0.2549
0.26863
0.2549
0.24902
0.22941
0.22941
0.21961
0.20392
0.12353
0.16863
0.19412
0.19412
0.16863
0.1098
0.04902
0.017647
0.023529
0.062745
0.098039
0.1098
0.062745
0.094118
0.16471
0.23333
0.27451
0.24902
0.19412
0.17843
0.18824
0.18431
0.18431
0.18824
0.19412
0.18824
0.2
0.2
0.2
0.2
0.2
0.20392
0.2
0.20392
0.20392
0.20392
0.20392
0.20392
0.20392
0.21373
0.2098
0.22353
0.22353
0.22941
0.22941
0.23922
0.2451
0.2451
0.24902
0.24902
0.2549
0.2549
0.2549
0.25882
0.2549
0.25882
0.2549
0.24902
0.2549
0.2549
0.24902
0.2451
0.24902
0.23333
0.23922
0.22941
0.22941
0.21961
0.22353
0.21961
0.21961
0.2098
0.2098
0.20392
0.2098
0.20392
0.20392
0.2
0.2
0.20392
0.2
0.20392
0.20392
0.2098
0.20392
0.21373
0.21373
0.22353
0.21373
0.22353
0.21961
0.22353
0.22353
0.22941
0.22353
0.22941
0.22353
0.22353
0.21961
0.22353
0.22941
0.22353
0.22941
0.22941
0.23922
0.2451
0.24902
0.23922
0.24902
0.2549
0.26863
0.27843
0.2902
0.26863
0.26471
0.24902
0.2451
0.22941
0.2098
0.12941
0.17451
0.20392
0.20392
0.18431
0.13333
0.078431
0.062745
0.052941
0.094118
0.12353
0.13922
0.088235
0.12941
0.2
0.26471
0.3
0.26471
0.2098
0.18824
0.20392
0.2
0.20392
0.20392
0.20392
0.21373
0.21373
0.21373
0.21961
0.21373
0.21373
0.2098
0.21961
0.21373
0.21961
0.22353
0.22353
0.22941
0.22941
0.22941
0.22941
0.23333
0.23333
0.2451
0.24902
0.24902
0.24902
0.25882
0.25882
0.25882
0.2549
0.26471
0.26471
0.26471
0.25882
0.26471
0.2549
0.2549
0.24902
0.2549
0.24902
0.24902
0.23922
0.23922
0.22941
0.22941
0.22941
0.22353
0.21961
0.21373
0.2098
0.2098
0.20392
0.2
0.20392
0.2
0.20392
0.19412
0.19412
0.19412
0.2
0.19412
0.19412
0.19412
0.2
0.2
0.19412
0.20392
0.2
0.20392
0.20392
0.20392
0.20392
0.20392
0.20392
0.2098
0.20392
0.2098
0.20392
0.2098
0.20392
0.2098
0.2098
0.21373
0.21961
0.22941
0.22941
0.22941
0.22353
0.23333
0.2451
0.26471
0.26863
0.25882
0.24902
0.23333
0.22941
0.21373
0.20392
0.11961
0.1098
0.17843
0.18431
0.17451
0.13922
0.078431
0.052941
0.039216
0.062745
0.094118
0.12353
0.078431
0.068627
0.1549
0.23922
0.27451
0.27843
0.19412
0.15882
0.16863
0.17451
0.17451
0.17843
0.17843
0.17843
0.18431
0.17843
0.18824
0.18824
0.2
0.18824
0.19412
0.19412
0.2
0.19412
0.2
0.2
0.20392
0.20392
0.2098
0.21373
0.21961
0.22353
0.22941
0.23333
0.23922
0.2451
0.23333
0.24902
0.2451
0.24902
0.24902
0.2549
0.24902
0.2549
0.24902
0.2549
0.24902
0.2549
0.24902
0.24902
0.23922
0.23922
0.23333
0.23333
0.22941
0.22353
0.21961
0.21961
0.21373
0.2098
0.2098
0.20392
0.20392
0.20392
0.2
0.19412
0.2
0.19412
0.20392
0.2
0.20392
0.2
0.20392
0.20392
0.2098
0.20392
0.2098
0.20392
0.2098
0.2098
0.21373
0.21961
0.2098
0.21961
0.2098
0.21961
0.21961
0.22353
0.21961
0.22353
0.21961
0.22941
0.22941
0.23922
0.23333
0.23922
0.22941
0.2451
0.24902
0.26863
0.26863
0.27451
0.24902
0.24902
0.23922
0.22941
0.21373
0.2
0.11961
0.16863
0.19412
0.19412
0.16863
0.10392
0.043137
0.017647
0.029412
0.058824
0.088235
0.1098
0.04902
0.078431
0.16471
0.23922
0.2902
0.26471
0.21961
0.2
0.2098
0.20392
0.20392
0.2098
0.20392
0.21373
0.21961
0.22353
0.21961
0.22941
0.22941
0.22353
0.21961
0.22353
0.22353
0.22941
0.22941
0.23333
0.23333
0.23922
0.23333
0.2451
0.2451
0.2549
0.2549
0.25882
0.2549
0.26863
0.26863
0.27451
0.27451
0.27843
0.28431
0.27451
0.27843
0.27451
0.27843
0.27843
0.27451
0.26863
0.27451
0.25882
0.25882
0.24902
0.2549
0.24902
0.24902
0.23333
0.23333
0.22941
0.22941
0.21373
0.21961
0.2098
0.2098
0.20392
0.20392
0.20392
0.20392
0.20392
0.20392
0.20392
0.20392
0.2098
0.21373
0.21961
0.21373
0.22353
0.21961
0.22353
0.21961
0.22353
0.21961
0.22353
0.21961
0.22941
0.22353
0.22941
0.22941
0.22941
0.22941
0.22941
0.22941
0.22353
0.2451
0.24902
0.2451
0.23922
0.24902
0.2451
0.27451
0.27843
0.28431
0.26863
0.26471
0.24902
0.23922
0.22941
0.21373
0.13333
0.18431
0.20392
0.20392
0.17451
0.12353
0.068627
0.04902
0.043137
0.084314
0.11961
0.13333
0.078431
0.11961
0.18824
0.26471
0.2902
0.25882
0.20392
0.18431
0.2
0.19412
0.2
0.2
0.20392
0.2
0.20392
0.20392
0.20392
0.20392
0.20392
0.20392
0.20392
0.20392
0.2098
0.2098
0.20392
0.2098
0.21373
0.21961
0.21373
0.22941
0.22941
0.23333
0.23922
0.2451
0.2451
0.2549
0.2549
0.25882
0.2549
0.26471
0.25882
0.25882
0.2549
0.25882
0.2549
0.2549
0.24902
0.24902
0.24902
0.24902
0.2451
0.23922
0.23333
0.22941
0.22941
0.22941
0.22353
0.21961
0.22353
0.21373
0.21373
0.20392
0.20392
0.20392
0.20392
0.2
0.20392
0.20392
0.20392
0.20392
0.2098
0.21373
0.21961
0.21373
0.2098
0.22353
0.21373
0.22353
0.21961
0.21961
0.21961
0.22353
0.21961
0.22353
0.21961
0.22353
0.21961
0.22353
0.22353
0.22941
0.22941
0.22941
0.22941
0.23922
0.23333
0.22941
0.22941
0.23922
0.24902
0.26471
0.27451
0.26863
0.24902
0.24902
0.23333
0.22941
0.22353
0.13333
0.12353
0.18824
0.19412
0.18431
0.14314
0.084314
0.052941
0.039216
0.07451
0.1098
0.13333
0.088235
0.084314
0.16471
0.2451
0.28431
0.2902
0.21373
0.17843
0.18431
0.17843
0.18824
0.18431
0.19412
0.19412
0.20392
0.2
0.20392
0.2
0.20392
0.2
0.20392
0.2
0.20392
0.20392
0.20392
0.2
0.20392
0.2098
0.21373
0.21961
0.22353
0.22941
0.22941
0.23333
0.22941
0.2451
0.2451
0.2451
0.2451
0.24902
0.24902
0.2549
0.24902
0.25882
0.2549
0.2549
0.24902
0.24902
0.2451
0.24902
0.23922
0.23922
0.22941
0.22941
0.22941
0.22941
0.22353
0.21961
0.22353
0.21373
0.21961
0.2098
0.20392
0.20392
0.2
0.19412
0.20392
0.2
0.20392
0.20392
0.2098
0.20392
0.2098
0.2098
0.2098
0.2098
0.21373
0.2098
0.2098
0.2098
0.2098
0.2098
0.21373
0.21961
0.21373
0.22353
0.21961
0.22353
0.21961
0.22941
0.21961
0.22353
0.22353
0.23922
0.23922
0.23333
0.22941
0.23922
0.2451
0.26471
0.27451
0.26863
0.24902
0.24902
0.23922
0.22941
0.21961
0.2
0.12353
0.16863
0.19412
0.18824
0.15882
0.098039
0.052941
0.029412
0.039216
0.068627
0.1098
0.11373
0.058824
0.10392
0.17843
0.24902
0.28431
0.23922
0.2
0.18431
0.19412
0.2
0.18824
0.2
0.19412
0.20392
0.20392
0.20392
0.20392
0.20392
0.20392
0.2098
0.20392
0.20392
0.20392
0.21373
0.20392
0.21373
0.2098
0.21961
0.21373
0.22353
0.22941
0.22941
0.22941
0.2451
0.2451
0.2549
0.25882
0.2549
0.26471
0.26863
0.26471
0.25882
0.26471
0.25882
0.25882
0.24902
0.2549
0.24902
0.24902
0.2451
0.24902
0.23333
0.23922
0.22941
0.22941
0.22353
0.21961
0.2098
0.21373
0.2098
0.20392
0.20392
0.20392
0.2
0.20392
0.2
0.19412
0.20392
0.19412
0.20392
0.19412
0.20392
0.20392
0.20392
0.20392
0.2098
0.2098
0.21373
0.20392
0.21373
0.20392
0.2098
0.2098
0.21373
0.2098
0.21373
0.2098
0.2098
0.21373
0.2098
0.21961
0.22353
0.22941
0.23333
0.23922
0.22941
0.22941
0.23333
0.24902
0.25882
0.26863
0.2549
0.24902
0.23333
0.22941
0.21373
0.2098
0.13333
0.1098
0.17843
0.17843
0.18431
0.12353
0.062745
0.029412
0.013725
0.039216
0.078431
0.1098
0.068627
0.052941
0.13922
0.21373
0.26471
0.27451
0.21373
0.17451
0.18431
0.17843
0.18431
0.17843
0.18824
0.18824
0.19412
0.18824
0.19412
0.18824
0.19412
0.19412
0.2
0.19412
0.2
0.19412
0.2
0.2
0.2
0.20392
0.2098
0.21373
0.21373
0.22941
0.22941
0.23333
0.22941
0.2451
0.2451
0.24902
0.24902
0.2549
0.24902
0.2549
0.25882
0.2549
0.24902
0.24902
0.2451
0.24902
0.2451
0.23922
0.23333
0.23333
0.23333
0.22941
0.22941
0.21961
0.21961
0.21373
0.21373
0.20392
0.20392
0.2
0.2
0.19412
0.19412
0.18824
0.18431
0.18824
0.18431
0.2
0.19412
0.2
0.20392
0.20392
0.20392
0.20392
0.20392
0.2098
0.20392
0.2098
0.20392
0.21373
0.2098
0.21961
0.2098
0.21961
0.2098
0.21373
0.2098
0.21373
0.2098
0.22353
0.21961
0.22941
0.23333
0.22941
0.22353
0.22941
0.2451
0.25882
0.27451
0.26863
0.2549
0.2451
0.23333
0.22353
0.21961
0.2
0.11373
0.15882
0.18431
0.17843
0.15882
0.098039
0.052941
0.029412
0.023529
0.068627
0.11373
0.12353
0.07451
0.11961
0.18824
0.2549
0.27843
0.23922
0.18431
0.17451
0.17451
0.17843
0.16863
0.17843
0.17451
0.17843
0.17843
0.18824
0.18431
0.18824
0.18431
0.19412
0.18824
0.19412
0.2
0.19412
0.2
0.20392
0.20392
0.20392
0.2098
0.21373
0.21961
0.22353
0.22941
0.22353
0.22941
0.22941
0.23333
0.23333
0.2451
0.23922
0.24902
0.23922
0.2451
0.23922
0.2451
0.23922
0.2451
0.23333
0.23333
0.22941
0.22941
0.21961
0.21961
0.2098
0.2098
0.20392
0.2
0.19412
0.19412
0.18824
0.18431
0.18824
0.18824
0.19412
0.18824
0.18824
0.18431
0.18431
0.18431
0.18824
0.18824
0.2
0.19412
0.20392
0.20392
0.20392
0.20392
0.20392
0.20392
0.20392
0.20392
0.20392
0.20392
0.20392
0.2098
0.20392
0.21373
0.20392
0.2098
0.2098
0.21961
0.21961
0.22353
0.22941
0.22941
0.21961
0.21961
0.22353
0.2451
0.2549
0.26863
0.25882
0.24902
0.23922
0.22941
0.21961
0.2098
0.14314
0.11961
0.17843
0.17843
0.17843
0.13922
0.084314
0.043137
0.033333
0.043137
0.084314
0.11961
0.084314
0.068627
0.14902
0.21961
0.27451
0.27843
0.2098
0.16471
0.17451
0.17843
0.17451
0.17843
0.17451
0.18431
0.17843
0.18824
0.18824
0.19412
0.18824
0.2
0.19412
0.2
0.19412
0.2
0.19412
0.20392
0.19412
0.20392
0.2
0.20392
0.2098
0.21961
0.21961
0.22353
0.22941
0.22941
0.23333
0.22941
0.23922
0.23922
0.24902
0.2451
0.24902
0.24902
0.24902
0.23922
0.2451
0.23922
0.2451
0.23922
0.2451
0.23333
0.22941
0.22353
0.22353
0.21961
0.21961
0.2098
0.20392
0.2098
0.20392
0.20392
0.2
0.18824
0.18824
0.19412
0.18824
0.2
0.19412
0.20392
0.2
0.20392
0.2
0.20392
0.2
0.20392
0.20392
0.2098
0.20392
0.2098
0.20392
0.2098
0.20392
0.2098
0.2098
0.21373
0.21961
0.2098
0.21373
0.2098
0.21373
0.2098
0.22353
0.22353
0.23333
0.22941
0.22353
0.21961
0.23333
0.2451
0.25882
0.25882
0.24902
0.23333
0.22941
0.21961
0.21373
0.2098
0.11961
0.11373
0.18431
0.18824
0.16471
0.098039
0.033333
0.0078431
-0.0058824
0.039216
0.068627
0.088235
0.033333
0.052941
0.12353
0.21961
0.26471
0.27843
0.2098
0.19412
0.2
0.2
0.19412
0.2
0.20392
0.20392
0.20392
0.2098
0.21373
0.20392
0.21373
0.2098
0.21961
0.21373
0.21961
0.21373
0.21961
0.21961
0.22353
0.22353
0.22941
0.22941
0.22941
0.23333
0.2451
0.2451
0.24902
0.24902
0.2549
0.2549
0.25882
0.2549
0.25882
0.2549
0.25882
0.26471
0.2549
0.26471
0.25882
0.26471
0.24902
0.24902
0.2451
0.24902
0.23922
0.2451
0.22353
0.22941
0.21961
0.21961
0.2098
0.2098
0.20392
0.20392
0.19412
0.19412
0.2
0.19412
0.20392
0.19412
0.20392
0.20392
0.20392
0.20392
0.2098
0.20392
0.2098
0.2098
0.21961
0.2098
0.21373
0.2098
0.21961
0.21373
0.21961
0.21373
0.21961
0.21373
0.21961
0.21961
0.21961
0.21961
0.22353
0.22353
0.22941
0.23922
0.23333
0.22353
0.22941
0.23333
0.24902
0.26863
0.26863
0.2549
0.23922
0.23333
0.22353
0.21373
0.18824
0.11373
0.15882
0.18824
0.17843
0.16471
0.10392
0.058824
0.029412
0.023529
0.062745
0.10392
0.11373
0.068627
0.1098
0.17843
0.2549
0.28431
0.2549
0.18824
0.17843
0.18431
0.17843
0.17843
0.19412
0.18824
0.19412
0.18431
0.18824
0.18431
0.19412
0.18824
0.2
0.19412
0.20392
0.2
0.20392
0.20392
0.2
0.2098
0.20392
0.21373
0.21961
0.22353
0.22941
0.22941
0.23333
0.23922
0.2451
0.24902
0.2451
0.2549
0.24902
0.2549
0.2549
0.25882
0.2549
0.26471
0.25882
0.25882
0.24902
0.24902
0.24902
0.24902
0.23922
0.23922
0.22941
0.22941
0.22941
0.22353
0.21961
0.21373
0.2098
0.20392
0.20392
0.20392
0.20392
0.2
0.2
0.19412
0.20392
0.2
0.20392
0.2
0.20392
0.20392
0.20392
0.20392
0.2098
0.20392
0.20392
0.2098
0.20392
0.2098
0.2098
0.21373
0.2098
0.2098
0.2098
0.21961
0.21961
0.21373
0.2098
0.21961
0.21961
0.22941
0.22941
0.23333
0.22353
0.22941
0.23333
0.2549
0.27451
0.27451
0.25882
0.2549
0.2451
0.22941
0.21961
0.20392
0.12941
0.11961
0.18431
0.18431
0.19412
0.13333
0.078431
0.043137
0.039216
0.062745
0.10392
0.11961
0.084314
0.078431
0.16863
0.23922
0.28431
0.2902
0.2098
0.16863
0.17843
0.18431
0.17843
0.18824
0.18431
0.18824
0.18824
0.19412
0.18824
0.19412
0.18824
0.20392
0.2
0.20392
0.20392
0.20392
0.20392
0.20392
0.20392
0.21373
0.2098
0.21961
0.21961
0.22941
0.22941
0.22941
0.23922
0.23333
0.24902
0.2451
0.24902
0.24902
0.2549
0.2549
0.25882
0.24902
0.25882
0.24902
0.2549
0.2451
0.24902
0.23922
0.23922
0.22941
0.22941
0.22353
0.22941
0.21373
0.2098
0.20392
0.20392
0.2
0.2
0.19412
0.18824
0.2
0.19412
0.2
0.18431
0.19412
0.18431
0.19412
0.18824
0.19412
0.19412
0.2
0.2
0.20392
0.2
0.20392
0.20392
0.2098
0.20392
0.20392
0.20392
0.20392
0.20392
0.20392
0.20392
0.20392
0.20392
0.20392
0.2098
0.2098
0.21373
0.22353
0.22941
0.21961
0.22353
0.22941
0.2451
0.24902
0.26863
0.2549
0.24902
0.23333
0.22941
0.21373
0.20392
0.15882
0.1098
0.17451
0.18824
0.19412
0.14902
0.084314
0.039216
0.023529
0.017647
0.062745
0.10392
0.078431
0.04902
0.1098
0.17843
0.24902
0.27451
0.23333
0.17843
0.17843
0.17843
0.18824
0.18824
0.18824
0.18824
0.19412
0.18824
0.19412
0.18824
0.18824
0.19412
0.2
0.20392
0.2
0.20392
0.20392
0.20392
0.20392
0.2098
0.2098
0.21373
0.21373
0.22353
0.22353
0.22941
0.22941
0.23922
0.2451
0.24902
0.24902
0.24902
0.24902
0.2549
0.2549
0.2549
0.24902
0.24902
0.24902
0.24902
0.2451
0.23922
0.23333
0.22941
0.22941
0.22941
0.22941
0.21961
0.21373
0.2098
0.2098
0.20392
0.20392
0.2
0.19412
0.18824
0.18824
0.18431
0.18431
0.18824
0.18431
0.2
0.19412
0.2
0.19412
0.20392
0.2
0.20392
0.20392
0.2098
0.2098
0.21373
0.21373
0.21961
0.2098
0.21961
0.2098
0.21373
0.2098
0.21373
0.2098
0.21373
0.2098
0.21961
0.22353
0.22941
0.23333
0.23333
0.22941
0.22941
0.23333
0.2451
0.25882
0.26471
0.25882
0.24902
0.2451
0.22941
0.22353
0.21373
0.14314
0.11961
0.18824
0.18431
0.17843
0.13333
0.068627
0.033333
0.023529
0.043137
0.078431
0.1098
0.07451
0.062745
0.14314
0.22353
0.26863
0.2902
0.23333
0.18824
0.18824
0.19412
0.18824
0.2
0.19412
0.2
0.2
0.20392
0.2
0.20392
0.20392
0.20392
0.20392
0.2
0.20392
0.19412
0.2
0.20392
0.20392
0.20392
0.2098
0.20392
0.21373
0.22353
0.22941
0.22941
0.2451
0.23922
0.24902
0.2451
0.24902
0.24902
0.2549
0.24902
0.2549
0.24902
0.2549
0.24902
0.24902
0.24902
0.2451
0.2451
0.23922
0.2451
0.22941
0.23922
0.22941
0.22941
0.22353
0.21961
0.2098
0.21373
0.20392
0.20392
0.2
0.2
0.18824
0.19412
0.18824
0.19412
0.19412
0.2
0.19412
0.2
0.2
0.20392
0.20392
0.2
0.20392
0.2
0.20392
0.2
0.20392
0.20392
0.20392
0.20392
0.2098
0.2098
0.21373
0.2098
0.21961
0.21373
0.21961
0.22353
0.22941
0.23333
0.23922
0.22941
0.22353
0.22941
0.2451
0.2549
0.26863
0.27451
0.24902
0.2451
0.23333
0.22353
0.2098
0.19412
0.1098
0.16471
0.18824
0.19412
0.15882
0.11373
0.058824
0.039216
0.039216
0.078431
0.11373
0.12353
0.078431
0.12941
0.19412
0.26471
0.2902
0.2549
0.19412
0.17843
0.19412
0.18824
0.19412
0.18824
0.19412
0.19412
0.20392
0.2
0.20392
0.2
0.2
0.2
0.20392
0.2
0.20392
0.2
0.20392
0.20392
0.2098
0.2098
0.21961
0.21961
0.22353
0.22941
0.23333
0.2451
0.24902
0.24902
0.24902
0.24902
0.24902
0.25882
0.24902
0.2549
0.24902
0.25882
0.2549
0.2549
0.24902
0.24902
0.23922
0.2451
0.22941
0.23333
0.22941
0.22941
0.21961
0.21373
0.21961
0.2098
0.20392
0.20392
0.20392
0.20392
0.2
0.19412
0.19412
0.19412
0.2
0.19412
0.2
0.2
0.20392
0.20392
0.20392
0.20392
0.21373
0.21373
0.21961
0.21961
0.22353
0.21961
0.22353
0.22941
0.22941
0.22941
0.22353
0.22941
0.22353
0.22941
0.22941
0.23333
0.22941
0.22941
0.23333
0.2451
0.23922
0.23922
0.23333
0.24902
0.25882
0.27451
0.27843
0.27451
0.2549
0.24902
0.2451
0.23333
0.21961
0.1549
0.13333
0.2
0.20392
0.19412
0.15882
0.098039
0.062745
0.043137
0.068627
0.098039
0.13922
0.098039
0.088235
0.16471
0.2451
0.29412
0.3
0.22941
0.18431
0.18431
0.18824
0.19412
0.18824
0.2
0.20392
0.2
0.20392
0.20392
0.20392
0.20392
0.2
0.20392
0.20392
0.2098
0.2098
0.21373
0.2098
0.21961
0.21373
0.22353
0.22353
0.22941
0.22941
0.23333
0.23922
0.24902
0.24902
0.2549
0.25882
0.25882
0.25882
0.26471
0.26863
0.26471
0.26863
0.26471
0.26863
0.25882
0.2549
0.24902
0.2549
0.24902
0.2451
0.23922
0.2451
0.22941
0.22941
0.22353
0.22353
0.21373
0.21961
0.20392
0.2098
0.20392
0.20392
0.20392
0.2
0.20392
0.2
0.19412
0.2
0.20392
0.2
0.2098
0.20392
0.2098
0.20392
0.2098
0.2098
0.21373
0.2098
0.21373
0.2098
0.21373
0.21373
0.21373
0.2098
0.21373
0.2098
0.21373
0.2098
0.2098
0.21373
0.21961
0.22941
0.22941
0.23922
0.22941
0.22941
0.22941
0.24902
0.2549
0.26863
0.2549
0.24902
0.23333
0.22941
0.21961
0.21373
0.13922
0.11373
0.17843
0.18824
0.17451
0.12353
0.052941
0.013725
0.0039216
0.029412
0.062745
0.088235
0.043137
0.023529
0.1098
0.18824
0.25882
0.27451
0.22353
0.18431
0.18824
0.19412
0.2
0.19412
0.2
0.2
0.20392
0.2
0.20392
0.2
0.20392
0.20392
0.2
0.20392
0.20392
0.2098
0.20392
0.2098
0.20392
0.21373
0.21373
0.22353
0.22353
0.23333
0.22941
0.23922
0.23922
0.24902
0.24902
0.2549
0.24902
0.25882
0.25882
0.26863
0.25882
0.26863
0.26471
0.26863
0.25882
0.2549
0.25882
0.24902
0.2451
0.2451
0.2451
0.23333
0.22941
0.22941
0.22353
0.21961
0.21373
0.20392
0.20392
0.20392
0.20392
0.18824
0.19412
0.18824
0.18824
0.18431
0.18824
0.18431
0.18824
0.19412
0.2
0.20392
0.20392
0.20392
0.20392
0.2098
0.20392
0.2098
0.2098
0.21373
0.2098
0.21961
0.21373
0.22353
0.21373
0.22353
0.21373
0.22353
0.21961
0.22941
0.22353
0.22941
0.23333
0.23333
0.22353
0.22941
0.23333
0.24902
0.26471
0.26863
0.2549
0.2451
0.23333
0.22941
0.22353
0.20392
0.12941
0.12353
0.19412
0.18824
0.17451
0.11961
0.062745
0.033333
0.023529
0.062745
0.098039
0.11961
0.07451
0.10392
0.17451
0.24902
0.27843
0.28431
0.19412
0.17843
0.17843
0.18824
0.18431
0.18824
0.18431
0.18824
0.18824
0.2
0.18824
0.2
0.2
0.20392
0.20392
0.20392
0.20392
0.2098
0.20392
0.2098
0.2098
0.21961
0.22353
0.21961
0.22941
0.23333
0.23922
0.23922
0.24902
0.2451
0.24902
0.24902
0.2549
0.24902
0.25882
0.25882
0.26471
0.2549
0.26471
0.2549
0.25882
0.24902
0.24902
0.2451
0.24902
0.23922
0.2451
0.23333
0.22941
0.23333
0.22353
0.21961
0.21373
0.21961
0.2098
0.20392
0.20392
0.20392
0.19412
0.2
0.19412
0.19412
0.19412
0.20392
0.19412
0.2
0.19412
0.20392
0.20392
0.20392
0.20392
0.20392
0.20392
0.20392
0.20392
0.20392
0.20392
0.20392
0.20392
0.20392
0.2098
0.20392
0.2098
0.20392
0.2098
0.21373
0.21961
0.22353
0.22941
0.22353
0.21961
0.22353
0.23922
0.24902
0.26471
0.26863
0.2549
0.2451
0.23922
0.22353
0.21373
0.2
0.1098
0.14902
0.17843
0.18431
0.16471
0.10392
0.062745
0.039216
0.033333
0.078431
0.1098
0.12941
0.07451
0.12353
0.18431
0.26471
0.2902
0.25882
0.18824
0.17451
0.18824
0.18824
0.19412
0.18824
0.2
0.18824
0.2
0.19412
0.20392
0.2
0.20392
0.2
0.20392
0.2
0.20392
0.20392
0.21373
0.2098
0.21961
0.21373
0.22353
0.22353
0.22941
0.22941
0.23333
0.23333
0.2451
0.24902
0.24902
0.25882
0.2549
0.25882
0.25882
0.26471
0.2549
0.25882
0.25882
0.26471
0.2549
0.2549
0.24902
0.24902
0.2451
0.2451
0.23333
0.2451
0.23333
0.23333
0.22941
0.22941
0.21961
0.21373
0.2098
0.2098
0.20392
0.20392
0.20392
0.20392
0.20392
0.20392
0.2098
0.2098
0.21961
0.21373
0.21961
0.2098
0.22353
0.21373
0.22353
0.21961
0.22353
0.22941
0.22941
0.22941
0.22941
0.22941
0.22941
0.22353
0.22941
0.22941
0.22941
0.22941
0.22941
0.23333
0.22941
0.24902
0.24902
0.24902
0.23922
0.24902
0.24902
0.26863
0.27843
0.28431
0.26863
0.26863
0.24902
0.2451
0.22941
0.21373
0.12941
0.17451
0.20392
0.20392
0.18431
0.12353
0.068627
0.039216
0.039216
0.07451
0.10392
0.11961
0.062745
0.094118
0.16471
0.23922
0.28431
0.2902
0.21373
0.19412
0.20392
0.2
0.20392
0.20392
0.2098
0.20392
0.2098
0.20392
0.2098
0.21373
0.2098
0.20392
0.20392
0.2098
0.2098
0.21373
0.21373
0.22353
0.21961
0.22353
0.21961
0.22941
0.22941
0.23333
0.23922
0.24902
0.2451
0.24902
0.24902
0.2549
0.2549
0.2549
0.2549
0.26471
0.26863
0.25882
0.2549
0.25882
0.26471
0.2549
0.24902
0.24902
0.2451
0.23333
0.23922
0.22941
0.21961
0.21373
0.21961
0.20392
0.2098
0.20392
0.20392
0.2
0.19412
0.18824
0.2
0.2
0.2
0.19412
0.18824
0.19412
0.18824
0.2
0.19412
0.20392
0.20392
0.20392
0.20392
0.2098
0.20392
0.21373
0.2098
0.21373
0.2098
0.21373
0.21373
0.21961
0.21373
0.21961
0.21373
0.2098
0.21373
0.22353
0.21961
0.22353
0.23333
0.23922
0.22941
0.22353
0.22941
0.23922
0.25882
0.26863
0.25882
0.24902
0.24902
0.22941
0.22353
0.2098
0.16863
0.12941
0.17843
0.18431
0.18824
0.13922
0.068627
0.029412
0.017647
0.039216
0.084314
0.11961
0.078431
0.068627
0.13333
0.21961
0.25882
0.27843
0.22941
0.17843
0.17843
0.19412
0.18431
0.19412
0.18431
0.19412
0.2
0.19412
0.18824
0.2
0.20392
0.2
0.20392
0.2
0.20392
0.20392
0.20392
0.20392
0.21373
0.20392
0.21373
0.20392
0.21961
0.21373
0.22941
0.22941
0.23333
0.23333
0.2451
0.24902
0.25882
0.24902
0.25882
0.25882
0.26471
0.2549
0.2549
0.24902
0.2549
0.24902
0.24902
0.24902
0.24902
0.23922
0.23922
0.2451
0.23333
0.22353
0.21961
0.22353
0.2098
0.2098
0.20392
0.20392
0.2
0.20392
0.2
0.2
0.19412
0.20392
0.2
0.19412
0.20392
0.20392
0.20392
0.2098
0.20392
0.21373
0.2098
0.2098
0.2098
0.21373
0.21961
0.2098
0.22353
0.21373
0.22353
0.2098
0.22941
0.21961
0.22353
0.21961
0.22941
0.23333
0.23333
0.23333
0.23922
0.23333
0.22941
0.23922
0.25882
0.26471
0.27843
0.28431
0.27451
0.25882
0.24902
0.23922
0.22941
0.21373
0.13333
0.17843
0.2
0.20392
0.18431
0.13922
0.094118
0.068627
0.062745
0.10392
0.13333
0.1549
0.098039
0.13922
0.2098
0.27843
0.3098
0.26863
0.2
0.18431
0.19412
0.18431
0.17843
0.18824
0.20392
0.20392
0.20392
0.2098
0.2
0.19412
0.21373
0.18824
0.19412
0.2
0.21373
0.22353
0.2098
0.22353
0.22353
0.21373
0.21373
0.22353
0.22353
0.22941
0.23333
0.22941
0.23333
0.2451
0.2451
0.2451
0.26471
0.26471
0.25882
0.25882
0.24902
0.2549
0.24902
0.26863
0.2549
0.26863
0.24902
0.25882
0.23333
0.23922
0.22353
0.22941
0.23333
0.23922
0.22941
0.21961
0.23333
0.21961
0.20392
0.21373
0.20392
0.2098
0.21961
0.2098
0.22353
0.20392
0.21373
0.21961
0.21373
0.22353
0.22353
0.22941
0.22941
0.22941
0.22353
0.22941
0.22941
0.22353
0.2451
0.23333
0.22941
0.22353
0.22941
0.22941
0.22353
0.21961
0.21373
0.22941
0.21961
0.22941
0.21373
0.23922
0.23333
0.23922
0.22941
0.2451
0.24902
0.26471
0.27451
0.27843
0.26863
0.2549
0.24902
0.23333
0.22941
0.18431
0.13333
0.18431
0.2
0.18824
0.16863
0.12353
0.098039
0.068627
0.088235
0.12941
0.16471
0.14314
0.12941
0.16863
0.23922
0.29412
0.31961
0.24902
0.17843
0.17451
0.16863
0.16863
0.17843
0.17843
0.18431
0.17843
0.18824
0.18824
0.19412
0.17843
0.18431
0.18824
0.18431
0.19412
0.2
0.20392
0.2
0.2098
0.2098
0.20392
0.21373
0.22353
0.22353
0.21373
0.22941
0.22353
0.23333
0.23333
0.23333
0.24902
0.23922
0.23333
0.2451
0.24902
0.2451
0.25882
0.24902
0.23922
0.2451
0.2451
0.2451
0.23922
0.22941
0.22941
0.22941
0.21373
0.22353
0.21961
0.2098
0.20392
0.21373
0.2
0.20392
0.2098
0.20392
0.2
0.20392
0.20392
0.19412
0.19412
0.18824
0.20392
0.2
0.2098
0.2098
0.21373
0.2098
0.21373
0.2098
0.21373
0.2098
0.22941
0.21961
0.21961
0.21961
0.21961
0.21373
0.22353
0.21961
0.22353
0.22941
0.21961
0.22941
0.22941
0.22941
0.23922
0.23922
0.23922
0.22941
0.22941
0.24902
0.25882
0.27451
0.27451
0.26471
0.2451
0.24902
0.22941
0.22353
0.21373
0.12941
0.12353
0.19412
0.17843
0.16471
0.11961
0.068627
0.039216
0.033333
0.084314
0.11373
0.13333
0.084314
0.11961
0.18824
0.27843
0.30392
0.3098
0.2
0.17843
0.17843
0.18431
0.17843
0.18824
0.18824
0.18824
0.18431
0.18824
0.18824
0.18824
0.18431
0.19412
0.2
0.18824
0.2
0.19412
0.20392
0.20392
0.2098
0.20392
0.2098
0.20392
0.21373
0.2098
0.22941
0.21961
0.22941
0.22941
0.23922
0.2451
0.23922
0.24902
0.24902
0.2451
0.24902
0.2451
0.24902
0.2451
0.2451
0.24902
0.2451
0.23333
0.23333
0.22941
0.22353
0.22941
0.21961
0.22353
0.21373
0.21373
0.20392
0.2098
0.20392
0.20392
0.19412
0.18824
0.18431
0.19412
0.18431
0.18824
0.18431
0.18824
0.19412
0.2
