0.34521
0.35498
0.3252
0.35498
0.35986
0.34521
0.35986
0.35498
0.39014
0.39502
0.39502
0.39502
0.43018
0.4502
0.41504
0.44482
0.49023
0.54004
0.56494
0.53516
0.62988
0.6499
0.65479
0.70508
0.68018
0.6748
0.69482
0.68994
0.64014
0.62012
0.62988
0.62012
0.56982
0.53516
0.53516
0.51514
0.50488
0.46484
0.47998
0.46484
0.47998
0.49023
0.50488
0.46484
0.45996
0.48486
0.49023
0.47998
0.5249
0.51514
0.50488
0.47998
0.50977
0.51514
0.45996
0.45508
0.4751
0.45996
0.45508
0.47021
0.4502
0.4248
0.41504
0.4248
0.43994
0.3999
0.375
0.4248
0.3999
0.375
0.39014
0.41504
0.40479
0.41016
0.3999
0.4248
0.45508
0.375
0.33984
0.53516
0.94482
1.3447
1.4448
0.92969
0.50977
0.28027
0.26025
0.31006
0.34521
0.33008
0.35498
0.33984
0.35498
0.3252
0.36523
0.37012
0.37988
0.39014
0.37012
0.35986
0.3501
0.3999
0.43018
0.45996
0.45508
0.51514
0.53516
0.56006
0.61475
0.65479
0.6748
0.68994
0.65479
0.66992
0.65479
0.6748
0.58984
0.60498
0.5498
0.54004
0.56006
0.54492
0.51514
0.54004
0.52002
0.5
0.49023
0.47021
0.5
0.48486
0.53516
0.48486
0.47021
0.49512
0.50977
0.46484
0.47021
0.46484
0.4751
0.48486
0.49023
0.45996
0.4502
0.4502
0.4751
0.45508
0.43506
0.41992
0.4248
0.41016
0.43018
0.44482
0.39502
0.3999
0.41992
0.3999
0.39502
0.39014
0.39502
0.37988
0.3999
0.4248
0.39502
0.3999
0.38525
0.41016
0.3999
0.41992
0.39502
0.43018
0.43506
0.40479
0.43994
0.41992
0.3999
0.41992
0.44482
0.43506
0.41992
0.45508
0.44482
0.43994
0.4502
0.4751
0.48486
0.4751
0.50977
0.41992
0.41016
0.49512
0.87988
1.3047
1.5
1.1099
0.58496
0.29492
0.25488
0.29492
0.3252
0.36523
0.37012
0.37988
0.38525
0.39502
0.39014
0.41992
0.39502
0.40479
0.40479
0.39502
0.38525
0.41016
0.4248
0.43994
0.45996
0.50488
0.54492
0.59521
0.58984
0.64502
0.66992
0.6748
0.68506
0.7002
0.68018
0.6748
0.6499
0.65479
0.6499
0.62988
0.58984
0.56494
0.56006
0.54492
0.56494
0.51514
0.54004
0.50488
0.51514
0.48486
0.50977
0.4502
0.45996
0.46484
0.45508
0.44482
0.4751
0.49023
0.50488
0.50977
0.46484
0.46484
0.49023
0.46484
0.47998
0.46484
0.43994
0.43506
0.4248
0.41504
0.41016
0.43018
0.41992
0.4502
0.43018
0.43018
0.41504
0.4248
0.45508
0.4502
0.43506
0.46484
0.45508
0.43506
0.41992
0.4751
0.44482
0.43994
0.45508
0.46484
0.44482
0.43018
0.4248
0.47998
0.4248
0.41992
0.43994
0.43018
0.47021
0.4248
0.43506
0.4502
0.46484
0.43994
0.45996
0.43994
0.44482
0.41992
0.44482
0.46484
0.4248
0.43506
0.45996
0.46484
0.45996
0.4751
0.44482
0.45996
0.48486
0.46484
0.48486
0.47021
0.45508
0.45996
0.4248
0.39502
0.54492
0.94971
1.3647
1.5
1.1099
0.625
0.34521
0.29492
0.31006
0.33496
0.3501
0.36523
0.37012
0.34521
0.35986
0.35498
0.39014
0.35986
0.37988
0.36523
0.41016
0.39502
0.41504
0.44482
0.45996
0.45508
0.5249
0.54004
0.58496
0.60986
0.62988
0.64014
0.6499
0.6748
0.68018
0.6748
0.64014
0.62012
0.63477
0.61475
0.62012
0.62988
0.56494
0.54004
0.56006
0.56982
0.5249
0.52979
0.50977
0.5
0.47998
0.49512
0.48486
0.5
0.44482
0.45508
0.46484
0.51514
0.49023
0.46484
0.5
0.51514
0.47021
0.49023
0.49512
0.48486
0.45508
0.46484
0.4751
0.45996
0.41504
0.40479
0.43018
0.41992
0.43018
0.45508
0.47021
0.4248
0.4502
0.43506
0.4502
0.37012
0.33008
0.375
0.73486
1.1699
1.46
1.1348
0.70996
0.36523
0.2251
0.26025
0.3252
0.33984
0.33008
0.3252
0.34521
0.35986
0.35498
0.36523
0.36523
0.35986
0.34521
0.36523
0.38525
0.3999
0.39014
0.39502
0.39502
0.4502
0.50977
0.56494
0.60986
0.62012
0.6499
0.68994
0.6748
0.65479
0.64502
0.65479
0.6499
0.64014
0.5752
0.54492
0.50977
0.4751
0.49023
0.49023
0.49512
0.49023
0.49023
0.47021
0.4751
0.46484
0.48486
0.50977
0.49023
0.47021
0.45996
0.4751
0.46484
0.49023
0.4502
0.45996
0.4502
0.4248
0.43506
0.43994
0.4502
0.41992
0.41016
0.4502
0.45508
0.43994
0.40479
0.41016
0.38525
0.43018
0.37012
0.39502
0.37988
0.41016
0.41992
0.3999
0.38525
0.41504
0.39502
0.39014
0.43018
0.38525
0.41016
0.41992
0.39502
0.39502
0.39014
0.44482
0.4248
0.3999
0.43994
0.4248
0.43018
0.41992
0.44482
0.46484
0.41992
0.41504
0.45508
0.45996
0.44482
0.47021
0.4502
0.43506
0.46484
0.45996
0.45508
0.45996
0.4502
0.45996
0.45508
0.49023
0.45508
0.44482
0.45996
0.47998
0.43018
0.46484
0.47021
0.49512
0.43018
0.40479
0.60986
1.0249
1.395
1.5
0.96973
0.53516
0.30029
0.25488
0.26514
0.30518
0.33984
0.36523
0.375
0.39502
0.3999
0.375
0.37012
0.36523
0.37988
0.36523
0.39014
0.39502
0.38525
0.37012
0.41016
0.4751
0.5
0.50977
0.5498
0.58984
0.6499
0.65479
0.68994
0.68506
0.7251
0.66504
0.6499
0.68018
0.625
0.61475
0.60498
0.61475
0.56982
0.5498
0.52002
0.5249
0.53516
0.52002
0.49023
0.5
0.51514
0.50977
0.51514
0.49023
0.48486
0.50977
0.53516
0.52979
0.51514
0.52002
0.48486
0.5
0.48486
0.49023
0.45508
0.43994
0.47021
0.43018
0.4248
0.45508
0.47998
0.45508
0.4248
0.41992
0.47021
0.4502
0.45996
0.43506
0.43994
0.44482
0.4248
0.3501
0.31006
0.5752
0.97998
1.3799
1.4849
0.9248
0.45996
0.25488
0.24023
0.30029
0.33008
0.35498
0.31982
0.33984
0.3252
0.31982
0.33496
0.3501
0.31982
0.33984
0.35498
0.37012
0.3501
0.37988
0.37012
0.43506
0.45996
0.49512
0.51514
0.56006
0.59521
0.66016
0.66504
0.6499
0.66016
0.6499
0.65479
0.60498
0.58984
0.5498
0.55518
0.51514
0.52002
0.49023
0.49512
0.47998
0.5
0.4751
0.50488
0.43018
0.46484
0.47021
0.47998
0.46484
0.45996
0.47021
0.44482
0.43506
0.43018
0.45508
0.44482
0.43994
0.45508
0.47998
0.47021
0.41992
0.39502
0.4502
0.41992
0.43018
0.40479
0.39502
0.41016
0.43994
0.41016
0.4248
0.43994
0.41992
0.39502
0.41992
0.41504
0.43018
0.43994
0.41504
0.40479
0.3999
0.4248
0.39502
0.37012
0.34521
0.5752
1.0098
1.3848
1.4497
0.88477
0.48486
0.26514
0.22998
0.27002
0.31494
0.34521
0.31982
0.33496
0.33984
0.3501
0.31006
0.33496
0.3501
0.37012
0.35498
0.38525
0.375
0.4248
0.43506
0.45508
0.5
0.54492
0.56006
0.59521
0.64502
0.65479
0.63477
0.625
0.66016
0.625
0.61475
0.60986
0.59521
0.59521
0.60498
0.59521
0.6001
0.54492
0.52979
0.53516
0.5249
0.52979
0.50977
0.5
0.50488
0.48486
0.4751
0.50977
0.51514
0.49512
0.50977
0.49512
0.45996
0.5
0.45508
0.4502
0.49023
0.49023
0.48486
0.47021
0.46484
0.47998
0.4502
0.45996
0.45508
0.4751
0.44482
0.45996
0.4502
0.43018
0.43994
0.41504
0.375
0.37012
0.40479
0.39502
0.41992
0.40479
0.3501
0.31006
0.58008
1.0347
1.4248
1.5
0.9248
0.5
0.31982
0.28027
0.28516
0.29492
0.28027
0.30029
0.31494
0.30029
0.33496
0.34521
0.31982
0.37012
0.37988
0.3501
0.39014
0.41016
0.40479
0.44482
0.43506
0.47998
0.48486
0.53516
0.58984
0.60498
0.63477
0.65479
0.62988
0.625
0.60498
0.62012
0.59521
0.62012
0.59521
0.60986
0.58008
0.5498
0.56006
0.53516
0.5498
0.49512
0.49023
0.49023
0.5
0.47998
0.50977
0.49023
0.5
0.46484
0.49512
0.45508
0.43506
0.41992
0.43994
0.43018
0.43994
0.45508
0.4248
0.4248
0.43994
0.43018
0.43994
0.41504
0.43018
0.43994
0.4248
0.41504
0.4502
0.43018
0.37012
0.40479
0.41016
0.39502
0.39014
0.41016
0.41504
0.4248
0.3999
0.43506
0.43018
0.43994
0.4248
0.4502
0.45996
0.43506
0.43018
0.4248
0.43506
0.44482
0.4248
0.44482
0.4502
0.40479
0.41992
0.35986
0.35498
0.58984
1
1.3647
1.48
0.98975
0.58008
0.33008
0.29004
0.35986
0.37012
0.36523
0.37012
0.34521
0.33984
0.35498
0.34521
0.3999
0.38525
0.37012
0.3501
0.375
0.41016
0.41992
0.40479
0.4502
0.47998
0.52979
0.54492
0.56494
0.58984
0.66016
0.69482
0.68018
0.68506
0.66992
0.69482
0.66016
0.63477
0.62988
0.58984
0.58496
0.58496
0.56006
0.56494
0.54492
0.52979
0.50488
0.5249
0.47021
0.49512
0.49023
0.52002
0.50977
0.50488
0.48486
0.49512
0.4751
0.47021
0.45996
0.4751
0.4502
0.43994
0.44482
0.4502
0.43018
0.44482
0.41504
0.43994
0.45508
0.43994
0.46484
0.45508
0.46484
0.45996
0.50977
0.46484
0.41992
0.40479
0.41504
0.43018
0.40479
0.37012
0.33496
0.31006
0.50977
0.9248
1.3647
1.4697
0.98486
0.54492
0.33008
0.28027
0.31006
0.33008
0.3252
0.3501
0.3252
0.39014
0.34521
0.31982
0.31494
0.37012
0.31982
0.33984
0.33496
0.37012
0.3999
0.44482
0.47998
0.47021
0.49023
0.50977
0.56494
0.62012
0.60986
0.66992
0.68506
0.64502
0.68018
0.6499
0.62988
0.60986
0.6001
0.58496
0.56982
0.53516
0.50977
0.5
0.5249
0.49023
0.49512
0.4751
0.45996
0.46484
0.4751
0.49512
0.51514
0.5
0.49023
0.50977
0.5
0.52002
0.49512
0.44482
0.43994
0.43018
0.46484
0.43506
0.41992
0.43018
0.4248
0.43994
0.41992
0.43994
0.4502
0.49023
0.43018
0.41504
0.43994
0.43506
0.4248
0.4502
0.41504
0.4502
0.39014
0.35498
0.375
0.37012
0.39502
0.37988
0.41504
0.4248
0.43506
0.41016
0.43994
0.4248
0.44482
0.4248
0.43994
0.46484
0.4502
0.43994
0.43994
0.43506
0.43994
0.39502
0.39502
0.39014
0.37988
0.43018
0.43994
0.47021
0.43018
0.375
0.43994
0.74512
1.165
1.4746
1.27
0.75488
0.375
0.2749
0.25
0.30518
0.31982
0.30518
0.28027
0.33008
0.33008
0.37012
0.35498
0.3501
0.375
0.36523
0.37012
0.37988
0.39502
0.41504
0.43994
0.48486
0.50977
0.5
0.53516
0.5752
0.60986
0.62012
0.62988
0.6499
0.68994
0.6748
0.7002
0.68018
0.68994
0.6499
0.66504
0.63477
0.62012
0.59521
0.5752
0.55518
0.56982
0.50977
0.5
0.47998
0.49023
0.46484
0.47021
0.47998
0.47021
0.47998
0.45996
0.49512
0.4751
0.49023
0.50977
0.52002
0.50488
0.49023
0.45508
0.48486
0.45508
0.4502
0.44482
0.4502
0.4248
0.41504
0.4248
0.41504
0.4502
0.41992
0.44482
0.43994
0.43506
0.45508
0.43994
0.43018
0.43994
0.44482
0.47998
0.44482
0.43994
0.41504
0.44482
0.43994
0.44482
0.41992
0.39014
0.46484
0.83008
1.2549
1.5
1.2798
0.7749
0.4248
0.27002
0.29004
0.3252
0.34521
0.35498
0.3252
0.33984
0.37012
0.36523
0.35986
0.36523
0.39502
0.39014
0.4248
0.40479
0.4248
0.43506
0.43994
0.46484
0.5249
0.52002
0.56494
0.5752
0.59521
0.62988
0.68018
0.6748
0.69482
0.66992
0.66504
0.6499
0.62988
0.63477
0.58008
0.5752
0.54492
0.5498
0.45996
0.4751
0.49512
0.51514
0.45508
0.4751
0.48486
0.49023
0.49023
0.50488
0.47998
0.5
0.4751
0.5
0.50488
0.49023
0.47998
0.48486
0.45996
0.43506
0.41992
0.46484
0.4751
0.41016
0.4502
0.41016
0.41992
0.41504
0.43994
0.41992
0.43994
0.4248
0.41992
0.43506
0.43994
0.3999
0.41504
0.43994
0.41992
0.4248
0.41504
0.35986
0.33496
0.43018
0.81006
1.1851
1.4346
1.1899
0.68506
0.3501
0.25488
0.2749
0.30518
0.3501
0.3252
0.29492
0.31494
0.33496
0.31982
0.30518
0.30518
0.33496
0.36523
0.35986
0.37012
0.3999
0.41992
0.40479
0.48486
0.50488
0.52979
0.55518
0.6001
0.60498
0.6001
0.62988
0.63477
0.6001
0.59521
0.60498
0.58496
0.5752
0.58984
0.5752
0.56982
0.5498
0.54492
0.51514
0.5
0.47998
0.49512
0.48486
0.4751
0.46484
0.49023
0.49512
0.43018
0.43994
0.41992
0.43018
0.43506
0.44482
0.43994
0.48486
0.46484
0.47021
0.46484
0.5
0.4751
0.43994
0.43506
0.46484
0.45996
0.47021
0.44482
0.45508
0.3999
0.43506
0.41016
0.39502
0.41504
0.4248
0.3999
0.38525
0.41504
0.375
0.31982
0.39014
0.7251
1.145
1.4897
1.1899
0.71973
0.39502
0.30029
0.26514
0.31982
0.3252
0.34521
0.3501
0.3252
0.33008
0.34521
0.31982
0.31494
0.37012
0.33984
0.35986
0.375
0.3999
0.43506
0.45508
0.4502
0.5
0.52979
0.58008
0.61475
0.64502
0.63477
0.65479
0.64014
0.66016
0.6748
0.61475
0.59521
0.58984
0.6001
0.56006
0.58496
0.56006
0.55518
0.54004
0.52979
0.54492
0.50488
0.48486
0.49512
0.49023
0.5
0.52002
0.49023
0.48486
0.50977
0.52002
0.50488
0.48486
0.50977
0.49023
0.49023
0.50488
0.45508
0.43994
0.45508
0.47021
0.43506
0.46484
0.45996
0.43994
0.41992
0.43018
0.37012
0.36523
0.61475
1.0547
1.3848
1.4097
0.74512
0.4248
0.29004
0.27002
0.28516
0.30518
0.2749
0.30518
0.3252
0.31494
0.3501
0.34521
0.375
0.38525
0.36523
0.40479
0.3999
0.39502
0.43506
0.4751
0.49512
0.50977
0.5498
0.55518
0.6001
0.64502
0.65479
0.64502
0.66016
0.60986
0.63477
0.64014
0.6499
0.58984
0.58496
0.58496
0.56982
0.54492
0.55518
0.51514
0.51514
0.48486
0.4751
0.51514
0.52002
0.48486
0.46484
0.49023
0.49512
0.52979
0.5
0.49512
0.51514
0.5
0.48486
0.50977
0.46484
0.5
0.47998
0.49512
0.4502
0.3999
0.4248
0.41504
0.41504
0.41992
0.41992
0.41016
0.4248
0.39502
0.3999
0.43506
0.43994
0.38525
0.4248
0.37988
0.41016
0.4248
0.41016
0.40479
0.41992
0.41016
0.43994
0.41992
0.4248
0.41992
0.375
0.3501
0.5
0.875
1.2598
1.4097
1.04
0.59521
0.31006
0.27002
0.3252
0.33984
0.31494
0.31006
0.30029
0.3501
0.33984
0.37012
0.35986
0.375
0.36523
0.38525
0.375
0.40479
0.41504
0.41016
0.44482
0.46484
0.47998
0.49023
0.53516
0.58008
0.60498
0.63477
0.66016
0.64014
0.6748
0.6499
0.65479
0.64502
0.66504
0.62012
0.60986
0.58008
0.58984
0.58496
0.54492
0.49023
0.48486
0.47998
0.47021
0.41992
0.43994
0.45508
0.4502
0.47021
0.45508
0.45996
0.43994
0.45996
0.47021
0.44482
0.45996
0.4751
0.43018
0.44482
0.43506
0.41504
0.3999
0.39502
0.3999
0.41016
0.39502
0.41992
0.3999
0.38525
0.37012
0.3999
0.39502
0.3999
0.39502
0.41016
0.375
0.31982
0.36523
0.66016
1.1001
1.46
1.4697
0.78516
0.41504
0.25
0.25488
0.28516
0.30518
0.29004
0.2749
0.30518
0.3252
0.30029
0.3252
0.33984
0.38525
0.3999
0.39014
0.375
0.3999
0.41504
0.46484
0.48486
0.4248
0.48486
0.50977
0.54004
0.56982
0.58008
0.60498
0.62988
0.64014
0.62988
0.63477
0.66992
0.61475
0.58496
0.6001
0.56006
0.5249
0.51514
0.45508
0.44482
0.47021
0.45508
0.44482
0.46484
0.47021
0.46484
0.49023
0.45996
0.48486
0.51514
0.48486
0.43506
0.43018
0.44482
0.4751
0.43018
0.43506
0.43994
0.44482
0.41504
0.43506
0.43994
0.41992
0.43506
0.4502
0.43018
0.4248
0.41016
0.3999
0.41992
0.41504
0.4248
0.41992
0.40479
0.43506
0.41992
0.43506
0.43994
0.41992
0.47021
0.45508
0.45996
0.41504
0.43506
0.4248
0.45996
0.47021
0.4502
0.43506
0.4248
0.43994
0.43506
0.43994
0.43018
0.43994
0.3999
0.375
0.58984
0.96484
1.3496
1.4697
0.96484
0.52979
0.31006
0.26514
0.29004
0.31982
0.31006
0.3252
0.31982
0.33984
0.31982
0.35986
0.375
0.34521
0.35498
0.33496
0.36523
0.38525
0.40479
0.43018
0.44482
0.45996
0.48486
0.52002
0.55518
0.5752
0.625
0.62012
0.69482
0.66992
0.64014
0.6499
0.66016
0.64502
0.66016
0.64502
0.62988
0.64502
0.58984
0.58496
0.56982
0.54492
0.56982
0.53516
0.54492
0.52979
0.52002
0.53516
0.5249
0.54004
0.56006
0.54004
0.5249
0.53516
0.52979
0.53516
0.51514
0.54004
0.5498
0.5249
0.47998
0.49512
0.47998
0.5
0.50977
0.4751
0.46484
0.45996
0.43994
0.43994
0.43506
0.44482
0.45508
0.36523
0.2749
0.4248
0.81982
1.25
1.4248
1.04
0.58984
0.30029
0.26025
0.29004
0.3501
0.3252
0.3501
0.30029
0.33984
0.3252
0.33984
0.34521
0.3501
0.375
0.37012
0.36523
0.35986
0.37988
0.375
0.43994
0.48486
0.49023
0.50488
0.5498
0.56982
0.58496
0.60498
0.58496
0.58008
0.60498
0.58984
0.60986
0.6001
0.58984
0.5498
0.54004
0.58008
0.55518
0.53516
0.5498
0.52002
0.50977
0.49512
0.48486
0.49023
0.47021
0.43506
0.4248
0.48486
0.46484
0.46484
0.47021
0.46484
0.46484
0.47021
0.46484
0.4751
0.48486
0.4751
0.45996
0.43018
0.40479
0.45508
0.3999
0.38525
0.3999
0.41992
0.41016
0.3999
0.39502
0.4248
0.43018
0.39502
0.41992
0.41504
0.43018
0.40479
0.41992
0.3999
0.43506
0.39014
0.40479
0.39502
0.41016
0.41992
0.41016
0.41992
0.41504
0.375
0.35986
0.54492
0.9248
1.3198
1.4399
1.0146
0.56006
0.31006
0.27002
0.29492
0.31982
0.33008
0.3252
0.34521
0.33984
0.38525
0.35498
0.34521
0.375
0.40479
0.375
0.38525
0.39014
0.43018
0.43994
0.41504
0.47021
0.49512
0.47998
0.52979
0.5752
0.6001
0.63477
0.65479
0.68018
0.71484
0.7251
0.68506
0.6499
0.63477
0.62012
0.6001
0.60986
0.53516
0.53516
0.51514
0.5
0.48486
0.5
0.48486
0.49023
0.47998
0.5249
0.54004
0.49512
0.5249
0.50488
0.46484
0.47021
0.4751
0.43994
0.4502
0.43994
0.45996
0.43506
0.43994
0.41992
0.41504
0.41992
0.45996
0.43018
0.4502
0.43506
0.45996
0.43506
0.41504
0.39502
0.37988
0.35986
0.31494
0.29004
0.54492
0.98975
1.375
1.4146
0.81006
0.49512
0.28516
0.26514
0.29004
0.33984
0.30518
0.31982
0.31006
0.3252
0.31982
0.3501
0.3252
0.34521
0.33008
0.36523
0.37012
0.41504
0.41992
0.43506
0.46484
0.49512
0.50977
0.55518
0.6001
0.59521
0.625
0.66016
0.64014
0.60986
0.61475
0.60986
0.625
0.56494
0.56006
0.56982
0.55518
0.51514
0.54004
0.49512
0.5
0.51514
0.50488
0.51514
0.48486
0.49023
0.49512
0.45996
0.4502
0.47021
0.45508
0.47021
0.46484
0.48486
0.46484
0.49512
0.48486
0.4751
0.46484
0.5
0.47021
0.44482
0.4502
0.43506
0.43994
0.46484
0.43018
0.41016
0.44482
0.45508
0.375
0.33984
0.45508
0.83008
1.2598
1.4448
1.04
0.60498
0.37012
0.3252
0.31494
0.30029
0.33008
0.30518
0.30029
0.33984
0.3501
0.34521
0.39014
0.34521
0.38525
0.37012
0.38525
0.39014
0.3999
0.41504
0.44482
0.45996
0.47021
0.5
0.54492
0.5752
0.58984
0.60986
0.64014
0.6499
0.65479
0.66992
0.63477
0.64014
0.61475
0.6001
0.58496
0.58984
0.51514
0.52002
0.47998
0.49512
0.46484
0.46484
0.4751
0.46484
0.45508
0.50488
0.49023
0.52002
0.54004
0.47998
0.48486
0.49023
0.51514
0.49023
0.45996
0.48486
0.45996
0.46484
0.45996
0.4502
0.49023
0.4502
0.45508
0.43994
0.4751
0.45996
0.41992
0.41992
0.4248
0.43018
0.40479
0.39502
0.375
0.40479
0.41016
0.39502
0.3999
0.39014
0.41504
0.43506
0.41992
0.41016
0.41504
0.4248
0.39502
0.41992
0.375
0.33984
0.45508
0.8501
1.2598
1.4146
1.0098
0.6001
0.33496
0.25488
0.28027
0.31982
0.34521
0.3252
0.29004
0.30029
0.31006
0.30518
0.31494
0.33008
0.34521
0.375
0.39014
0.38525
0.41016
0.43994
0.49023
0.47021
0.50977
0.49512
0.5249
0.58008
0.58008
0.58496
0.60986
0.64014
0.58984
0.60498
0.64502
0.60498
0.625
0.62988
0.5752
0.56006
0.56494
0.58008
0.54004
0.5249
0.50977
0.49023
0.46484
0.49512
0.46484
0.45996
0.4751
0.46484
0.47021
0.4751
0.47021
0.45996
0.48486
0.45996
0.45996
0.50977
0.52002
0.45996
0.43506
0.45996
0.48486
0.43994
0.41016
0.39502
0.4248
0.3999
0.43018
0.43994
0.41992
0.44482
0.4248
0.40479
0.43018
0.43994
0.43018
0.46484
0.41992
0.39014
0.41504
0.41992
0.39502
0.31982
0.36523
0.62988
1.0649
1.4048
1.4399
0.83496
0.43506
0.28027
0.23486
0.28516
0.31006
0.3252
0.31982
0.3501
0.31982
0.33008
0.3252
0.33984
0.3252
0.35498
0.37012
0.38525
0.40479
0.41504
0.41992
0.4751
0.5
0.50977
0.55518
0.56006
0.6001
0.62012
0.60986
0.60498
0.63477
0.6001
0.625
0.63477
0.625
0.60498
0.58008
0.58496
0.56982
0.55518
0.54492
0.50488
0.47998
0.50488
0.49023
0.48486
0.5
0.48486
0.49023
0.45508
0.47021
0.52002
0.5
0.51514
0.52002
0.48486
0.47998
0.49023
0.45996
0.45508
0.43506
0.4248
0.4502
0.4248
0.43018
0.38525
0.375
0.41504
0.43506
0.44482
0.43018
0.45508
0.43506
0.44482
0.45996
0.46484
0.41504
0.39014
0.4248
0.41504
0.40479
0.38525
0.40479
0.41504
0.41992
0.43506
0.45508
0.46484
0.41504
0.3501
0.48486
0.83984
1.2598
1.46
1.1299
0.6748
0.31494
0.22998
0.28516
0.33008
0.3252
0.33984
0.3252
0.35986
0.3501
0.38525
0.35498
0.38525
0.37012
0.39014
0.39502
0.43506
0.41504
0.41016
0.43506
0.48486
0.49512
0.52002
0.56494
0.61475
0.6001
0.64014
0.66504
0.68018
0.66992
0.66016
0.68018
0.65479
0.64014
0.60498
0.5752
0.54492
0.56494
0.54004
0.51514
0.50977
0.4751
0.45996
0.48486
0.49512
0.48486
0.50977
0.50977
0.4751
0.50488
0.47021
0.47998
0.48486
0.4751
0.45508
0.43994
0.47021
0.48486
0.47021
0.4751
0.46484
0.45508
0.48486
0.45508
0.47998
0.43994
0.45996
0.41992
0.40479
0.41992
0.43994
0.41992
0.41992
0.38525
0.3999
0.40479
0.4502
0.44482
0.43994
0.47998
0.46484
0.44482
0.45508
0.45996
0.41016
0.40479
0.41504
0.37988
0.33984
0.56006
0.97998
1.3599
1.4297
0.91992
0.48486
0.28027
0.25488
0.29492
0.3252
0.3252
0.34521
0.33496
0.33984
0.33008
0.3501
0.34521
0.33008
0.33984
0.3501
0.3501
0.3999
0.41504
0.43994
0.4751
0.50488
0.51514
0.54492
0.56494
0.60986
0.6499
0.64502
0.62988
0.625
0.58496
0.58984
0.60498
0.61475
0.59521
0.58008
0.5752
0.58496
0.55518
0.52979
0.54004
0.49023
0.51514
0.49512
0.51514
0.49512
0.49023
0.47021
0.49023
0.47998
0.4751
0.47021
0.49023
0.49512
0.45508
0.46484
0.45996
0.4751
0.49023
0.45508
0.44482
0.46484
0.4502
0.48486
0.41992
0.40479
0.43018
0.41504
0.39502
0.43506
0.43018
0.41992
0.40479
0.41016
0.41992
0.41016
0.38525
0.43018
0.41504
0.45996
0.40479
0.39502
0.41992
0.43018
0.41016
0.45508
0.45996
0.41504
0.43018
0.4502
0.45996
0.4248
0.45996
0.4248
0.35498
0.3501
0.71973
1.0947
1.4248
1.4346
0.74512
0.375
0.24512
0.22021
0.29004
0.33984
0.38525
0.39014
0.35498
0.33496
0.33008
0.35498
0.3501
0.38525
0.37012
0.36523
0.35498
0.39502
0.43018
0.43994
0.4248
0.47998
0.52002
0.56982
0.58496
0.625
0.62012
0.6748
0.66504
0.68506
0.66504
0.66992
0.63477
0.62012
0.66016
0.59521
0.58008
0.5752
0.6001
0.55518
0.56006
0.54004
0.52002
0.50977
0.48486
0.45996
0.47998
0.46484
0.47021
0.43994
0.44482
0.43994
0.47021
0.49512
0.48486
0.47021
0.50977
0.5
0.50977
0.4751
0.47021
0.49512
0.4751
0.44482
0.43506
0.43994
0.39502
0.40479
0.39502
0.3999
0.37988
0.39502
0.37988
0.41504
0.41016
0.41016
0.43018
0.41992
0.41504
0.43018
0.43994
0.4502
0.43018
0.43994
0.44482
0.41016
0.43506
0.41504
0.40479
0.43506
0.43994
0.4248
0.43018
0.4502
0.45508
0.4502
0.47998
0.39502
0.43018
0.75
1.1851
1.4946
1.5
0.76514
0.40479
0.25488
0.28516
0.33008
0.3501
0.35986
0.3501
0.39014
0.41992
0.37988
0.39502
0.39502
0.41504
0.41992
0.39502
0.41992
0.43994
0.4502
0.46484
0.49023
0.45508
0.53516
0.54492
0.62012
0.64014
0.66016
0.66992
0.66016
0.70508
0.68994
0.6499
0.64014
0.65479
0.62012
0.60986
0.58496
0.58496
0.56494
0.52002
0.50488
0.49512
0.5
0.50977
0.49512
0.50977
0.47021
0.45996
0.43994
0.50488
0.45996
0.45508
0.4751
0.45508
0.43994
0.46484
0.4502
0.49512
0.46484
0.47998
0.44482
0.43018
0.45508
0.43994
0.43506
0.43018
0.43506
0.41016
0.4248
0.41016
0.43018
0.41992
0.41992
0.41992
0.41016
0.40479
0.43018
0.39502
0.43994
0.41504
0.41016
0.41992
0.43018
0.43994
0.45508
0.37988
0.3501
0.63477
1.0649
1.3999
1.4746
0.83496
0.43506
0.26514
0.25
0.2749
0.27002
0.3252
0.3252
0.34521
0.36523
0.37012
0.34521
0.39502
0.375
0.375
0.37012
0.39014
0.3999
0.39014
0.41504
0.41992
0.41992
0.45996
0.49512
0.56006
0.5752
0.61475
0.64502
0.65479
0.6748
0.68018
0.7002
0.6748
0.64014
0.60986
0.59521
0.5498
0.52979
0.51514
0.54004
0.48486
0.47998
0.47998
0.48486
0.48486
0.50977
0.51514
0.49512
0.5249
0.5
0.51514
0.51514
0.51514
0.5
0.5
0.49023
0.51514
0.46484
0.47021
0.4502
0.46484
0.44482
0.4502
0.43506
0.44482
0.4248
0.4751
0.41504
0.41016
0.39502
0.41016
0.41992
0.3999
0.39014
0.40479
0.40479
0.41992
0.43506
0.39502
0.43018
0.39502
0.41016
0.39502
0.43018
0.39502
0.43994
0.40479
0.41504
0.4248
0.4502
0.41504
0.3999
0.4248
0.41992
0.4502
0.46484
0.43994
0.43506
0.46484
0.46484
0.47021
0.45508
0.45996
0.47998
0.49512
0.45996
0.45996
0.43506
0.47021
0.45508
0.4751
0.47998
0.49512
0.4751
0.49512
0.47998
0.47021
0.45508
0.5
0.4502
0.41992
0.38525
0.5752
0.93506
1.3096
1.5
1.125
0.64014
0.3501
0.28027
0.30518
0.34521
0.33008
0.3501
0.35498
0.37012
0.37988
0.35986
0.35498
0.38525
0.37988
0.38525
0.41016
0.41016
0.3999
0.43018
0.44482
0.47021
0.49512
0.54492
0.58984
0.58496
0.59521
0.61475
0.66992
0.68506
0.6748
0.69482
0.6499
0.64014
0.6748
0.66992
0.61475
0.56494
0.5752
0.56494
0.58984
0.53516
0.53516
0.51514
0.49023
0.4751
0.50488
0.5
0.51514
0.48486
0.51514
0.48486
0.47998
0.50977
0.52979
0.5498
0.5
0.49023
0.48486
0.51514
0.49512
0.47998
0.47998
0.48486
0.49023
0.48486
0.43994
0.4751
0.43994
0.4502
0.4751
0.49023
0.47998
0.43994
0.41992
0.4502
0.45996
0.41992
0.43994
0.41992
0.44482
0.43018
0.4248
0.3999
0.35986
0.33496
0.56982
0.9751
1.3896
1.4849
0.96973
0.49023
0.29004
0.24023
0.28516
0.31006
0.31494
0.29492
0.29492
0.33008
0.3501
0.35986
0.3501
0.39502
0.37012
0.38525
0.41992
0.4751
0.46484
0.44482
0.43994
0.48486
0.51514
0.53516
0.56982
0.625
0.63477
0.68994
0.69482
0.65479
0.65479
0.6748
0.66504
0.65479
0.6499
0.625
0.5752
0.56006
0.54004
0.51514
0.47998
0.48486
0.49512
0.4751
0.4502
0.43994
0.48486
0.49023
0.50488
0.51514
0.47998
0.49512
0.47998
0.45996
0.4751
0.46484
0.48486
0.47021
0.45996
0.4248
0.41992
0.41016
0.41992
0.4248
0.45508
0.43994
0.4248
0.45996
0.43994
0.43018
0.4502
0.45508
0.44482
0.46484
0.3999
0.41504
0.39502
0.41992
0.4248
0.43018
0.41504
0.43994
0.45508
0.43506
0.4751
0.47021
0.45996
0.4751
0.43018
0.4248
0.44482
0.4248
0.41992
0.41992
0.43506
0.41992
0.43994
0.39502
0.43018
0.43994
0.47021
0.43994
0.43506
0.47021
0.48486
0.4751
0.5
0.50977
0.48486
0.4248
0.38525
0.54492
0.93506
1.2847
1.4297
0.97998
0.5249
0.27002
0.22998
0.29492
0.33008
0.33984
0.33496
0.39014
0.36523
0.38525
0.35986
0.38525
0.37012
0.36523
0.35498
0.36523
0.35986
0.39502
0.40479
0.39014
0.45996
0.54004
0.5752
0.60986
0.62988
0.68018
0.7002
0.68506
0.7002
0.6748
0.66016
0.6499
0.6499
0.63477
0.64014
0.58496
0.61475
0.58008
0.56982
0.55518
0.56982
0.52979
0.54492
0.5498
0.52979
0.5
0.51514
0.5
0.4751
0.49023
0.46484
0.45508
0.43994
0.49512
0.46484
0.49023
0.47021
0.49023
0.49023
0.48486
0.49023
0.47998
0.46484
0.45996
0.4248
0.41992
0.43994
0.41992
0.41504
0.43018
0.44482
0.43018
0.43994
0.4751
0.43506
0.41992
0.45996
0.43018
0.41992
0.33496
0.31006
0.63477
1.0801
1.4346
1.4546
0.78516
0.3999
0.23486
0.2749
0.33008
0.3501
0.31982
0.3501
0.33984
0.3501
0.31006
0.34521
0.3501
0.33984
0.3252
0.3501
0.37988
0.3501
0.39014
0.41992
0.46484
0.48486
0.54004
0.55518
0.58008
0.61475
0.66504
0.64014
0.64502
0.65479
0.64014
0.62988
0.64014
0.54004
0.56006
0.58496
0.56982
0.56006
0.52979
0.52002
0.50977
0.52979
0.50977
0.48486
0.48486
0.49023
0.47021
0.5
0.49512
0.49023
0.46484
0.44482
0.41992
0.46484
0.45508
0.50488
0.52979
0.50977
0.48486
0.49023
0.48486
0.49023
0.45996
0.4502
0.49023
0.45996
0.43506
0.43018
0.43506
0.41992
0.4502
0.44482
0.43994
0.43994
0.44482
0.43994
0.47998
0.4248
0.35986
0.34521
0.60498
1.0049
1.4048
1.4746
0.9248
0.48486
0.30029
0.28516
0.30029
0.31494
0.33496
0.35498
0.3252
0.34521
0.33496
0.3501
0.35498
0.33984
0.35986
0.34521
0.33496
0.37988
0.41016
0.43506
0.43018
0.49023
0.50977
0.5498
0.55518
0.58984
0.64014
0.66016
0.62988
0.65479
0.6748
0.63477
0.60498
0.62988
0.59521
0.56982
0.54004
0.5498
0.5249
0.5
0.53516
0.48486
0.49023
0.49512
0.50977
0.48486
0.5
0.49512
0.51514
0.4751
0.47021
0.44482
0.5
0.50977
0.45996
0.41016
0.43994
0.45508
0.43018
0.43506
0.4248
0.43994
0.43506
0.45996
0.4248
0.43994
0.41504
0.43994
0.41504
0.41504
0.4248
0.41992
0.4248
0.43994
0.43506
0.43018
0.3999
0.4248
0.41504
0.41016
0.375
0.38525
0.37988
0.3999
0.3999
0.41504
0.41992
0.39502
0.4248
0.46484
0.47021
0.43506
0.46484
0.47021
0.43018
0.41992
0.43018
0.41016
0.41016
0.40479
0.41992
0.39502
0.38525
0.49512
0.91504
1.3447
1.4746
1.0801
0.64502
0.3501
0.26514
0.31982
0.33008
0.33496
0.31982
0.33984
0.30518
0.3501
0.33008
0.37012
0.36523
0.36523
0.375
0.41016
0.39502
0.4502
0.45508
0.48486
0.45996
0.51514
0.53516
0.5498
0.58008
0.60498
0.61475
0.62012
0.62988
0.65479
0.66992
0.66504
0.68018
0.6499
0.66016
0.625
0.60498
0.59521
0.58984
0.55518
0.53516
0.51514
0.49512
0.46484
0.4502
0.4751
0.48486
0.44482
0.46484
0.45996
0.5
0.48486
0.5
0.47998
0.49023
0.49512
0.5
0.4751
0.45508
0.47021
0.44482
0.43506
0.43018
0.41992
0.43506
0.48486
0.43994
0.43994
0.41992
0.4502
0.43506
0.43018
0.44482
0.43506
0.41992
0.41016
0.41504
0.41992
0.41016
0.4502
0.4248
0.3999
0.44482
0.43018
0.41504
0.43018
0.4502
0.44482
0.45996
0.4248
0.43994
0.41992
0.44482
0.43506
0.43994
0.4502
0.43506
0.46484
0.4502
0.43506
0.46484
0.44482
0.46484
0.47021
0.43994
0.45996
0.48486
0.4248
0.39014
0.37012
0.50977
0.91504
1.3247
1.4897
1.0498
0.58984
0.33496
0.29492
0.28516
0.34521
0.3501
0.40479
0.3252
0.31982
0.3501
0.34521
0.34521
0.37988
0.39502
0.38525
0.3999
0.41992
0.43018
0.45508
0.48486
0.46484
0.51514
0.50977
0.54004
0.55518
0.6001
0.625
0.65479
0.66992
0.70508
0.7002
0.71484
0.66504
0.6748
0.64502
0.65479
0.63477
0.61475
0.58496
0.56982
0.53516
0.5249
0.52002
0.49023
0.49512
0.48486
0.5
0.50977
0.47998
0.49512
0.51514
0.5
0.52979
0.48486
0.50977
0.50488
0.5249
0.50488
0.49023
0.47021
0.47021
0.45508
0.49023
0.44482
0.43994
0.4751
0.49023
0.47021
0.43506
0.43018
0.43018
0.41992
0.45996
0.4502
0.43994
0.44482
0.43994
0.44482
0.44482
0.43018
0.4248
0.43018
0.41016
0.43506
0.4502
0.46484
0.43506
0.41992
0.38525
0.37012
0.54492
0.94971
1.3647
1.4849
0.97998
0.55518
0.28027
0.22998
0.31494
0.33008
0.3252
0.33496
0.34521
0.3501
0.36523
0.33496
0.36523
0.34521
0.36523
0.34521
0.37988
0.39014
0.41504
0.41992
0.39502
0.46484
0.51514
0.53516
0.5752
0.64502
0.66016
0.64014
0.66016
0.7002
0.6748
0.63477
0.60986
0.625
0.60498
0.59521
0.58496
0.5498
0.54004
0.53516
0.5249
0.54492
0.5
0.46484
0.45996
0.47998
0.45508
0.44482
0.44482
0.45508
0.43994
0.43018
0.46484
0.44482
0.45996
0.48486
0.5
0.48486
0.45996
0.4502
0.4751
0.49512
0.43506
0.41992
0.43506
0.43994
0.39502
0.40479
0.4248
0.39502
0.37988
0.375
0.43018
0.41016
0.3999
0.43994
0.45508
0.45996
0.41992
0.41992
0.43018
0.43994
0.39502
0.39014
0.41016
0.41992
0.39502
0.41992
0.40479
0.43018
0.41016
0.41504
0.41016
0.43994
0.43018
0.45996
0.44482
0.43994
0.45508
0.44482
0.45508
0.43994
0.43018
0.4502
0.47998
0.4248
0.41992
0.4248
0.43506
0.43018
0.45508
0.44482
0.47021
0.43018
0.38525
0.46484
0.7998
1.1997
1.4897
1.2549
0.71973
0.35498
0.25488
0.25
0.30518
0.3252
0.35986
0.37012
0.3501
0.35498
0.3999
0.36523
0.3501
0.36523
0.3501
0.37012
0.39502
0.39502
0.38525
0.43994
0.43506
0.48486
0.52002
0.6001
0.60986
0.63477
0.68506
0.7002
0.68018
0.69482
0.6748
0.66992
0.68018
0.65479
0.65479
0.65479
0.61475
0.60986
0.62012
0.58008
0.56494
0.53516
0.5498
0.51514
0.49512
0.48486
0.50977
0.49023
0.45508
0.43994
0.46484
0.48486
0.44482
0.43018
0.45508
0.49512
0.47998
0.50977
0.4751
0.45508
0.48486
0.5
0.46484
0.47021
0.44482
0.47021
0.41992
0.44482
0.41992
0.43506
0.41992
0.43994
0.43018
0.43994
0.39502
0.41992
0.41992
0.4502
0.48486
0.41504
0.38525
0.43018
0.4502
0.41992
0.43018
0.43994
0.41992
0.43018
0.43506
0.41016
0.40479
0.43506
0.4502
0.43994
0.41504
0.43018
0.45996
0.41504
0.41016
0.4502
0.43506
0.44482
0.46484
0.43994
0.4502
0.45508
0.4751
0.45996
0.46484
0.4751
0.47021
0.4751
0.45996
0.49023
0.45508
0.41992
0.47998
0.79004
1.2246
1.5
1.2847
0.7749
0.41016
0.27002
0.26514
0.3252
0.3501
0.3501
0.375
0.3999
0.39502
0.40479
0.39502
0.39502
0.39502
0.39502
0.37988
0.40479
0.4248
0.41992
0.46484
0.47021
0.50977
0.53516
0.56982
0.60498
0.66504
0.7002
0.72998
0.74512
0.7251
0.7002
0.68018
0.71484
0.64014
0.58496
0.59521
0.58008
0.56494
0.55518
0.55518
0.5249
0.50977
0.52002
0.49023
0.5
0.52979
0.54004
0.49023
0.48486
0.4502
0.4751
0.41992
0.43506
0.43018
0.45996
0.46484
0.49023
0.48486
0.47021
0.49023
0.51514
0.47998
0.47998
0.43994
0.43018
0.45508
0.44482
0.43018
0.41504
0.4248
0.3999
0.41504
0.3999
0.43506
0.43994
0.41992
0.4248
0.43994
0.41016
0.3999
0.4248
0.45996
0.46484
0.41992
0.41992
0.4502
0.45996
0.41992
0.3999
0.41992
0.43018
0.41992
0.4502
0.43506
0.44482
0.43994
0.46484
0.43506
0.45508
0.45508
0.48486
0.44482
0.43994
0.41992
0.45996
0.46484
0.43994
0.41992
0.45996
0.43506
0.41016
0.3999
0.5249
0.87012
1.29
1.4946
1.165
0.66504
0.34521
0.26025
0.23486
0.33008
0.3501
0.36523
0.3252
0.33984
0.33496
0.37988
0.3501
0.35498
0.35986
0.41016
0.41504
0.40479
0.43018
0.4502
0.43994
0.4751
0.5
0.56006
0.58984
0.56006
0.65479
0.6748
0.65479
0.68506
0.7002
0.68506
0.7002
0.66504
0.68018
0.62988
0.64014
0.625
0.58984
0.56982
0.54492
0.53516
0.5498
0.50977
0.49512
0.49512
0.50488
0.47021
0.49023
0.46484
0.45508
0.44482
0.4502
0.4751
0.47021
0.49023
0.5
0.50977
0.4502
0.47021
0.45996
0.46484
0.44482
0.47998
0.48486
0.4248
0.39502
0.41016
0.41504
0.41992
0.39502
0.43018
0.43506
0.43018
0.43994
0.43506
0.46484
0.4502
0.45996
0.44482
0.41504
0.39502
0.41016
0.3999
0.41016
0.41992
0.4248
0.39502
0.39502
0.38525
0.41016
0.43506
0.4751
0.45996
0.46484
0.46484
0.47998
0.49023
0.47021
0.44482
0.43994
0.44482
0.4248
0.43994
0.41992
0.44482
0.41504
0.41992
0.44482
0.45508
0.43994
0.47021
0.49512
0.52002
0.49512
0.5
0.50488
0.49512
0.50488
0.4502
0.43506
0.43018
0.41504
0.39014
0.58008
1.0146
1.4048
1.5
0.97998
0.56006
0.30518
0.26514
0.34521
0.35498
0.39014
0.35498
0.3501
0.35986
0.36523
0.3501
0.35986
0.3501
0.37012
0.36523
0.39502
0.41016
0.39502
0.3999
0.43018
0.46484
0.51514
0.50977
0.59521
0.61475
0.6001
0.6499
0.6748
0.68994
0.7002
0.6748
0.64502
0.65479
0.625
0.58984
0.60498
0.62012
0.58496
0.5752
0.55518
0.52979
0.50977
0.52979
0.50977
0.49512
0.45996
0.47021
0.4751
0.43994
0.44482
0.47021
0.47998
0.46484
0.48486
0.47998
0.4751
0.49023
0.50488
0.51514
0.51514
0.47998
0.49023
0.46484
0.43506
0.4248
0.4502
0.43994
0.45996
0.41016
0.43994
0.46484
0.49023
0.46484
0.43994
0.41504
0.43506
0.44482
0.47021
0.43506
0.41504
0.3999
0.41992
0.43018
0.41504
0.41992
0.40479
0.41992
0.43994
0.41992
0.43018
0.46484
0.43994
0.46484
0.47021
0.46484
0.43506
0.43994
0.4502
0.45508
0.43506
0.46484
0.43018
0.43994
0.4502
0.45996
0.43994
0.43018
0.3999
0.39502
0.75
1.1597
1.4946
1.5
0.80469
0.40479
0.26025
0.25
0.33008
0.3501
0.33496
0.31494
0.31982
0.33496
0.31982
0.37012
0.38525
0.39014
0.37012
0.39014
0.37988
0.41504
0.43994
0.49512
0.49512
0.49023
0.50977
0.5249
0.59521
0.62012
0.6001
0.6499
0.68018
0.7002
0.68506
0.6748
0.6748
0.66992
0.7002
0.66016
0.66992
0.62012
0.56982
0.54492
0.50977
0.49023
0.49512
0.44482
0.45996
0.43506
0.46484
0.43994
0.46484
0.45996
0.47021
0.50488
0.51514
0.48486
0.51514
0.49023
0.5
0.46484
0.45996
0.47021
0.4502
0.41016
0.39502
0.39014
0.40479
0.39014
0.38525
0.43994
0.4502
0.43994
0.45508
0.46484
0.43994
0.43506
0.4502
0.43506
0.39014
0.3501
0.31494
0.56982
0.98975
1.3799
1.4297
0.83984
0.43018
0.24512
0.2251
0.3252
0.34521
0.31006
0.34521
0.3252
0.33984
0.34521
0.36523
0.3501
0.37988
0.35498
0.3501
0.37988
0.3501
0.40479
0.41504
0.41016
0.4502
0.50488
0.55518
0.56982
0.64014
0.68018
0.6748
0.65479
0.6748
0.66016
0.6499
0.62012
0.60498
0.60986
0.55518
0.56494
0.5249
0.49512
0.47998
0.49023
0.49023
0.5
0.46484
0.47021
0.49023
0.46484
0.4248
0.4502
0.44482
0.46484
0.45508
0.45996
0.4502
0.47021
0.43994
0.4751
0.49023
0.48486
0.49023
0.4751
0.44482
0.43994
0.45508
0.43994
0.44482
0.43994
0.43994
0.4502
0.41992
0.41504
0.43994
0.41504
0.44482
0.41504
0.41016
0.43994
0.41992
0.39014
0.41016
0.41504
0.43018
0.44482
0.4248
0.40479
0.41504
0.45996
0.41992
0.43506
0.43994
0.4502
0.4248
0.43994
0.41992
0.43994
0.45996
0.43994
0.43018
0.4502
0.45508
0.43506
0.3999
0.43994
0.43018
0.45508
0.46484
0.45996
0.47021
0.43506
0.47021
0.43018
0.45996
0.44482
0.4502
0.41992
0.4751
0.7002
1.1299
1.4746
1.5
0.82471
0.4751
0.29004
0.28516
0.33984
0.36523
0.3501
0.375
0.39502
0.41504
0.41992
0.43994
0.44482
0.43506
0.43018
0.43994
0.43506
0.46484
0.43994
0.45996
0.47998
0.5
0.52002
0.55518
0.58496
0.64502
0.7002
0.69482
0.73975
0.74512
0.73486
0.75488
0.71973
0.68994
0.70508
0.66016
0.64502
0.63477
0.6499
0.60986
0.56982
0.56006
0.5249
0.48486
0.50488
0.54004
0.50977
0.5
0.49023
0.52002
0.49512
0.5
0.48486
0.49023
0.49023
0.50977
0.49023
0.50488
0.49023
0.48486
0.46484
0.47998
0.45508
0.4502
0.4751
0.45508
0.43018
0.45508
0.46484
0.44482
0.46484
0.44482
0.44482
0.4502
0.43506
0.44482
0.43994
0.41992
0.41016
0.35498
0.30029
0.46484
0.87988
1.2949
1.4497
0.98975
0.58496
0.30518
0.25
0.28516
0.33008
0.33496
0.35498
0.3501
0.37012
0.3501
0.35498
0.3501
0.37012
0.3501
0.38525
0.35498
0.33496
0.39502
0.3999
0.45508
0.4502
0.50488
0.53516
0.55518
0.58496
0.62988
0.6499
0.66504
0.66992
0.68994
0.66016
0.64014
0.64502
0.58984
0.56982
0.5498
0.56006
0.54004
0.51514
0.49512
0.4751
0.45508
0.4751
0.45996
0.49023
0.48486
0.48486
0.45996
0.49512
0.47998
0.49023
0.47021
0.49023
0.5
0.41992
0.43018
0.44482
0.43994
0.4502
0.45508
0.44482
0.4502
0.44482
0.4502
0.4248
0.43994
0.41504
0.40479
0.39014
0.43994
0.4248
0.41504
0.41992
0.40479
0.40479
0.39502
0.38525
0.41016
0.41504
0.31494
0.375
0.71973
1.1748
1.4648
1.1997
0.71973
0.38525
0.25488
0.25
0.28027
0.33496
0.33984
0.33496
0.3501
0.31982
0.31006
0.35498
0.35986
0.33008
0.35498
0.3501
0.37012
0.3501
0.39502
0.4248
0.44482
0.4751
0.50488
0.54004
0.56982
0.62012
0.66504
0.68018
0.68994
0.68506
0.66992
0.6748
0.66016
0.60498
0.59521
0.56494
0.55518
0.50488
0.49023
0.5
0.48486
0.48486
0.47998
0.50488
0.51514
0.52002
0.51514
0.52979
0.49023
0.47998
0.5
0.46484
0.43994
0.43994
0.41992
0.41992
0.40479
0.41992
0.43018
0.47021
0.43994
0.44482
0.43994
0.46484
0.44482
0.45996
0.43994
0.4248
0.41992
0.43018
0.41016
0.41016
0.39014
0.37012
0.375
0.39014
0.3999
0.39502
0.41992
0.41016
0.41016
0.43018
0.41992
0.43506
0.44482
0.41992
0.43994
0.43018
0.43506
0.41992
0.44482
0.41992
0.43018
0.43994
0.40479
0.43506
0.43994
0.4248
0.43506
0.45996
0.43506
0.41992
0.41016
0.41992
0.43506
0.43994
0.43994
0.4248
0.41992
0.58496
1.0098
1.4097
1.4849
0.98975
0.5
0.27002
0.22998
0.26025
0.26025
0.28027
0.31982
0.33008
0.31982
0.34521
0.38525
0.37012
0.35986
0.375
0.41016
0.41504
0.45508
0.45996
0.45508
0.48486
0.49023
0.48486
0.54004
0.5249
0.56006
0.59521
0.66504
0.6748
0.66992
0.7002
0.69482
0.71484
0.68018
0.6748
0.68994
0.6499
0.64014
0.6499
0.58984
0.56006
0.52979
0.50488
0.48486
0.5
0.48486
0.49023
0.45508
0.4502
0.47021
0.5
0.50488
0.50977
0.5752
0.73486
0.92969
1.2046
1.5
1.5
1.5
1.5
1.5
1.5
1.5
1.5
1.5
1.1001
0.5249
0.064941
-0.089844
-0.13477
-0.1748
-0.20459
-0.23975
-0.2749
-0.24463
-0.25977
-0.2749
-0.29004
-0.25488
-0.28467
-0.25977
-0.28467
-0.29004
-0.2749
-0.2998
-0.24463
-0.25488
-0.23486
-0.18506
-0.125
-0.054688
-0.024902
0.044922
0.12012
0.18018
0.25
0.30029
0.37012
0.39502
0.46484
0.45996
0.50977
0.52979
0.5498
0.52002
0.52002
0.50977
0.52979
0.53516
0.50488
0.5249
0.55518
0.56494
0.58496
0.5498
0.54004
0.5498
0.52002
0.53516
0.54004
0.52002
0.50488
0.5249
0.50488
0.48486
0.49512
0.5
0.47021
0.45996
0.46484
0.43506
0.4751
0.47021
0.48486
0.47998
0.49023
0.49023
0.48486
0.47998
0.49023
0.5
0.50977
0.46484
0.49023
0.49512
0.49023
0.47998
0.52979
0.50488
0.45996
0.43994
0.47021
0.45996
0.47021
0.4502
0.49023
0.48486
0.46484
0.46484
0.47998
0.46484
0.49512
0.48486
0.47021
0.49023
0.51514
0.50488
0.50977
0.49023
0.47998
0.49512
0.50488
0.50488
0.49512
0.50977
0.49512
0.50977
0.47021
0.49023
0.44482
0.47998
0.46484
0.46484
0.46484
0.49512
0.4751
0.41992
0.56006
0.97998
1.3848
1.5
1.0649
0.59521
0.34521
0.27002
0.31982
0.3501
0.35986
0.3501
0.37988
0.375
0.35498
0.33984
0.37012
0.3501
0.375
0.3999
0.39014
0.38525
0.4248
0.4502
0.47998
0.49023
0.52002
0.56494
0.60986
0.60986
0.64014
0.66992
0.6748
0.68994
0.6748
0.7251
0.7251
0.71484
0.7251
0.68994
0.65479
0.6499
0.63477
0.64014
0.60498
0.62988
0.56982
0.54492
0.56494
0.54492
0.5498
0.54004
0.54492
0.50977
0.52979
0.49512
0.52002
0.44482
0.45996
0.44482
0.4248
0.46484
0.48486
0.4751
0.49023
0.47021
0.5
0.47998
0.47021
0.4751
0.47998
0.43018
0.41992
0.43018
0.47998
0.40479
0.39014
0.41016
0.44482
0.45508
0.41504
0.43506
0.41992
0.3999
0.39502
0.40479
0.33984
0.30029
0.29492
0.73975
1.1548
1.4697
1.1797
0.70508
0.33496
0.2251
0.21484
0.29492
0.31982
0.33008
0.30518
0.3252
0.33008
0.31494
0.35498
0.31006
0.34521
0.3501
0.37012
0.37988
0.4248
0.43018
0.41992
0.46484
0.50977
0.5249
0.58008
0.56006
0.62988
0.625
0.64014
0.62988
0.65479
0.62988
0.6499
0.62012
0.6001
0.58984
0.60498
0.6001
0.56006
0.52979
0.51514
0.49512
0.50977
0.49023
0.47998
0.47021
0.45996
0.48486
0.47998
0.47021
0.43506
0.43018
0.45996
0.4751
0.44482
0.4502
0.46484
0.45996
0.48486
0.47021
0.46484
0.4502
0.43994
0.44482
0.4502
0.39502
0.41504
0.43994
0.4248
0.41504
0.43994
0.39502
0.40479
0.39502
0.41504
0.40479
0.41504
0.31494
0.39014
0.70996
1.125
1.395
1.165
0.70996
0.35498
0.2251
0.26514
0.30518
0.3252
0.33496
0.35498
0.37012
0.34521
0.36523
0.37988
0.35498
0.31494
0.3501
0.33984
0.3501
0.35498
0.38525
0.39502
0.44482
0.47021
0.50977
0.54004
0.58008
0.59521
0.66016
0.68018
0.65479
0.68018
0.68994
0.64502
0.62988
0.60498
0.58496
0.56494
0.51514
0.51514
0.51514
0.48486
0.4751
0.51514
0.45996
0.43994
0.46484
0.49512
0.4751
0.50488
0.50977
0.5
0.46484
0.45508
0.48486
0.49023
0.47021
0.45508
0.43994
0.46484
0.47021
0.45508
0.41992
0.41992
0.41992
0.41992
0.43018
0.39502
0.39502
0.41992
0.43018
0.38525
0.41504
0.41992
0.44482
0.41504
0.43018
0.43994
0.43018
0.39502
0.40479
0.39502
0.41504
0.44482
0.41016
0.41992
0.43994
0.40479
0.3999
0.4502
0.45996
0.43506
0.41504
0.47021
0.4248
0.41992
0.44482
0.43506
0.4248
0.44482
0.41016
0.41992
0.4248
0.4502
0.44482
0.43994
0.43018
0.45996
0.43506
0.47021
0.47998
0.45996
0.47021
0.46484
0.48486
0.46484
0.46484
0.43018
0.4502
0.45508
0.46484
0.43018
0.4502
0.48486
0.43994
0.43018
0.47998
0.49023
0.48486
0.49023
0.4751
0.47998
0.46484
0.5
0.49023
0.47021
0.43994
0.46484
0.4751
0.45508
0.43506
0.4751
0.46484
0.49023
0.4502
0.40479
0.3999
0.7998
1.1997
1.5
1.3247
0.81982
0.41016
0.26514
0.25488
0.31006
0.33496
0.3501
0.35986
0.35498
0.375
0.39502
0.34521
0.33496
0.37988
0.37012
0.39014
0.375
0.40479
0.43018
0.45996
0.45508
0.48486
0.52002
0.56494
0.58984
0.65479
0.64502
0.68018
0.6748
0.71973
0.72998
0.70508
0.68506
0.7002
0.6748
0.66504
0.66992
0.6499
0.66504
0.59521
0.60498
0.58496
0.55518
0.54492
0.52002
0.49512
0.47998
0.46484
0.47998
0.49023
0.50488
0.47998
0.47021
0.46484
0.49023
0.49023
0.46484
0.4751
0.5
0.48486
0.47021
0.49023
0.4751
0.50488
0.45996
0.46484
0.4248
0.43994
0.41504
0.41992
0.41016
0.45508
0.41992
0.41992
0.41504
0.43018
0.4502
0.47021
0.4248
0.3999
0.33496
0.4502
0.7998
1.23
1.4697
1.1348
0.66016
0.33008
0.23486
0.22021
0.28027
0.29492
0.33008
0.34521
0.3501
0.36523
0.39014
0.3501
0.3501
0.36523
0.3999
0.39502
0.39014
0.37012
0.41016
0.41504
0.4751
0.5
0.55518
0.59521
0.62012
0.6499
0.68506
0.68994
0.68018
0.69482
0.66504
0.64502
0.6001
0.60498
0.55518
0.56006
0.52002
0.50488
0.49023
0.49512
0.4751
0.48486
0.4751
0.48486
0.48486
0.50488
0.47998
0.45508
0.43506
0.46484
0.49023
0.45996
0.47021
0.41504
0.43018
0.45508
0.4751
0.4502
0.47021
0.47998
0.45508
0.44482
0.45996
0.45508
0.43506
0.41504
0.43018
0.39502
0.3999
0.39014
0.4248
0.37012
0.39502
0.40479
0.41992
0.3999
0.41504
0.4248
0.41992
0.43994
0.4248
0.41992
0.41016
0.40479
0.41992
0.43506
0.39502
0.43506
0.3999
0.34521
0.33496
0.61475
1.0049
1.3999
1.4746
0.91504
0.49512
0.30518
0.25488
0.30029
0.33008
0.33496
0.34521
0.29492
0.34521
0.3501
0.33008
0.3252
0.3501
0.33008
0.38525
0.39014
0.4248
0.41992
0.45508
0.46484
0.50977
0.5
0.53516
0.54492
0.58008
0.63477
0.6499
0.66992
0.68018
0.66992
0.65479
0.66992
0.65479
0.62012
0.64014
0.62012
0.6001
0.58984
0.56006
0.53516
0.50488
0.48486
0.51514
0.48486
0.43994
0.46484
0.4751
0.5
0.43994
0.43018
0.48486
0.50977
0.4751
0.46484
0.51514
0.46484
0.47998
0.4751
0.48486
0.46484
0.43994
0.43506
0.4248
0.4248
0.43018
0.43994
0.39014
0.37012
0.43506
0.43018
0.44482
0.43994
0.4248
0.4248
0.46484
0.44482
0.43994
0.40479
0.41016
0.3999
0.43994
0.41504
0.39502
0.40479
0.41992
0.39502
0.4248
0.40479
0.4248
0.43506
0.4248
0.44482
0.47021
0.45996
0.4248
0.43506
0.43994
0.47021
0.43018
0.4248
0.43506
0.4502
0.43994
0.43506
0.43994
0.45508
0.4502
0.4751
0.4502
0.47998
0.46484
0.45508
0.43994
0.3999
0.49023
0.83984
1.2749
1.5
1.2046
0.68506
0.375
0.24023
0.28027
0.31982
0.34521
0.3252
0.33496
0.33496
0.37988
0.375
0.39502
0.36523
0.39014
0.40479
0.39502
0.41016
0.40479
0.43994
0.4502
0.49512
0.50488
0.54492
0.54004
0.6001
0.59521
0.6499
0.64014
0.6748
0.68506
0.69482
0.70996
0.71973
0.66992
0.66504
0.64014
0.62012
0.625
0.59521
0.56494
0.58008
0.53516
0.49023
0.50488
0.47021
0.46484
0.45996
0.47998
0.47021
0.49023
0.4751
0.51514
0.50488
0.5
0.49512
0.52002
0.46484
0.52002
0.53516
0.47998
0.45508
0.44482
0.43994
0.47021
0.4502
0.44482
0.4751
0.4502
0.46484
0.45508
0.43506
0.45508
0.46484
0.43506
0.41992
0.43506
0.43994
0.41504
0.44482
0.43018
0.44482
0.45996
0.4751
0.47021
0.4751
0.44482
0.3999
0.4751
0.82471
1.1899
1.4897
1.27
0.74512
0.35986
0.24512
0.2749
0.31494
0.34521
0.3252
0.36523
0.37988
0.38525
0.36523
0.39502
0.3999
0.4248
0.36523
0.35986
0.39014
0.37988
0.41992
0.43994
0.45508
0.49023
0.52002
0.59521
0.64014
0.66504
0.66992
0.65479
0.68994
0.7002
0.6748
0.66504
0.6499
0.63477
0.62988
0.6001
0.58496
0.53516
0.5498
0.55518
0.52002
0.50488
0.50977
0.45508
0.45996
0.45996
0.48486
0.45996
0.4502
0.46484
0.48486
0.45996
0.4502
0.48486
0.50488
0.4751
0.4502
0.49023
0.49023
0.47021
0.43506
0.4248
0.41992
0.43994
0.38525
0.40479
0.39014
0.43506
0.41992
0.43018
0.41016
0.3999
0.38525
0.41992
0.43018
0.43018
0.4248
0.3999
0.33008
0.3252
0.61475
1.04
1.4146
1.4199
0.81494
0.43018
0.26514
0.22998
0.28516
0.29492
0.31494
0.29492
0.31494
0.3252
0.33496
0.31982
0.35498
0.33496
0.3501
0.35498
0.38525
0.39014
0.3999
0.41504
0.44482
0.47021
0.50488
0.5249
0.54492
0.58496
0.61475
0.65479
0.63477
0.65479
0.66016
0.6499
0.62988
0.625
0.59521
0.60986
0.56494
0.54004
0.54492
0.52979
0.47021
0.45996
0.47998
0.4751
0.47021
0.47998
0.45996
0.45508
0.4751
0.45508
0.49512
0.50977
0.51514
0.49512
0.47021
0.45508
0.45996
0.45508
0.48486
0.49512
0.4248
0.4248
0.4248
0.39502
0.41016
0.39014
0.41504
0.43506
0.41992
0.4502
0.4248
0.43018
0.33008
0.39502
0.72998
1.1748
1.3999
1.0947
0.63477
0.3501
0.24023
0.25488
0.27002
0.29492
0.30029
0.31006
0.31494
0.3252
0.34521
0.33008
0.375
0.3501
0.33984
0.33496
0.37012
0.37988
0.39502
0.375
0.43994
0.45508
0.47998
0.53516
0.56982
0.6001
0.64014
0.6499
0.64014
0.65479
0.64502
0.60986
0.65479
0.59521
0.55518
0.56006
0.54492
0.50977
0.49512
0.4751
0.47998
0.46484
0.47021
0.49023
0.50977
0.47021
0.45996
0.47998
0.45996
0.47998
0.4751
0.47021
0.4502
0.48486
0.46484
0.43506
0.43018
0.46484
0.43506
0.43018
0.41992
0.4248
0.40479
0.4248
0.43018
0.41504
0.41992
0.3999
0.41504
0.39502
0.41016
0.36523
0.37012
0.34521
0.35986
0.375
0.37988
0.30518
0.30029
0.49023
0.8999
1.2998
1.4146
0.91992
0.53516
0.29492
0.26025
0.29492
0.31982
0.33496
0.31494
0.33008
0.31006
0.34521
0.35498
0.36523
0.38525
0.39502
0.41016
0.41504
0.44482
0.46484
0.4502
0.46484
0.47998
0.51514
0.54004
0.6001
0.60498
0.64502
0.66504
0.64502
0.6748
0.64502
0.63477
0.64014
0.61475
0.625
0.58496
0.58008
0.58496
0.5498
0.55518
0.53516
0.53516
0.55518
0.51514
0.46484
0.44482
0.46484
0.47021
0.45996
0.44482
0.43506
0.46484
0.47021
0.43994
0.43994
0.48486
0.51514
0.45996
0.4751
0.47998
0.45508
0.46484
0.4248
0.43506
0.41504
0.41016
0.4248
0.37012
0.375
0.37988
0.41504
0.40479
0.39502
0.43506
0.45508
0.4248
0.4502
0.43994
0.45996
0.45508
0.45996
0.4248
0.43994
0.44482
0.39014
0.33008
0.40479
0.75977
1.1948
1.48
1.1948
0.7251
0.37988
0.25
0.28027
0.31982
0.30029
0.33984
0.3501
0.33496
0.31494
0.33984
0.34521
0.35498
0.34521
0.38525
0.38525
0.375
0.40479
0.3999
0.43018
0.41992
0.45508
0.5
0.53516
0.5498
0.58496
0.60986
0.62988
0.64014
0.62988
0.64502
0.6499
0.62012
0.625
0.59521
0.5752
0.55518
0.5498
0.54492
0.52002
0.48486
0.47998
0.49023
0.48486
0.45508
0.48486
0.47021
0.46484
0.47998
0.52002
0.5249
0.47021
0.47998
0.49023
0.4751
0.46484
0.4502
0.43018
0.45996
0.47998
0.48486
0.43994
0.43018
0.4502
0.4502
0.44482
0.46484
0.43506
0.41016
0.41504
0.31006
0.2749
0.5752
0.98975
1.3647
1.395
0.75977
0.43506
0.31006
0.30029
0.28027
0.3252
0.31494
0.3252
0.31006
0.33008
0.3252
0.35498
0.31982
0.33984
0.30518
0.33496
0.3252
0.37988
0.39014
0.41504
0.43018
0.47998
0.54492
0.5498
0.55518
0.6001
0.64014
0.65479
0.625
0.60498
0.60986
0.60498
0.59521
0.56494
0.58008
0.56494
0.56982
0.52002
0.53516
0.52979
0.50977
0.50488
0.49023
0.46484
0.45508
0.47021
0.5
0.50488
0.45996
0.48486
0.47998
0.51514
0.46484
0.4751
0.4751
0.46484
0.45996
0.43994
0.44482
0.45508
0.43994
0.43994
0.4248
0.41992
0.41016
0.41504
0.39014
0.41504
0.43018
0.43506
0.41992
0.43506
0.41016
0.3999
0.43506
0.43018
0.39014
0.3999
0.41016
0.41992
0.43018
0.41016
0.4248
0.37012
0.36523
0.61475
1.0547
1.395
1.46
0.83008
0.45996
0.25488
0.22998
0.29492
0.31982
0.3252
0.31494
0.31982
0.33496
0.30029
0.31982
0.33984
0.36523
0.3501
0.37988
0.41504
0.39014
0.41992
0.45996
0.49512
0.49023
0.54004
0.52002
0.56006
0.58496
0.61475
0.64502
0.625
0.62988
0.625
0.62988
0.64014
0.60498
0.62988
0.6001
0.58008
0.58496
0.58008
0.56006
0.55518
0.5249
0.49023
0.49512
0.48486
0.50977
0.4502
0.49023
0.49512
0.50977
0.48486
0.49023
0.49023
0.53516
0.49512
0.54004
0.52979
0.53516
0.47021
0.45996
0.4502
0.46484
0.47998
0.45996
0.46484
0.45996
0.47021
0.46484
0.46484
0.4751
0.48486
0.44482
0.45996
0.46484
0.44482
0.41504
0.43506
0.44482
0.4248
0.39502
0.41992
0.43994
0.43018
0.45508
0.43994
0.44482
0.47021
0.48486
0.45996
0.52002
0.49512
0.46484
0.45508
0.45996
0.45508
0.4751
0.45508
0.44482
0.46484
0.4502
0.43994
0.4502
0.47021
0.46484
0.47998
0.49023
0.46484
0.43506
0.41504
0.70508
1.105
1.4648
1.5
0.875
0.43018
0.27002
0.25488
0.30518
0.3252
0.33984
0.3501
0.34521
0.36523
0.35498
0.39502
0.3999
0.41504
0.39014
0.41016
0.39502
0.39502
0.39014
0.43994
0.43506
0.5
0.50977
0.55518
0.60498
0.59521
0.625
0.64502
0.69482
0.66992
0.66992
0.65479
0.65479
0.6748
0.65479
0.61475
0.58984
0.56982
0.58496
0.56982
0.54004
0.52002
0.5
0.45508
0.4502
0.48486
0.4751
0.51514
0.49023
0.5
0.51514
0.49512
0.51514
0.5
0.50977
0.45508
0.46484
0.43994
0.43994
0.43506
0.45508
0.46484
0.43018
0.43018
0.43506
0.46484
0.4248
0.33984
0.3252
0.6001
1
1.3096
1.3296
0.70996
0.37988
0.25488
0.25
0.28027
0.29004
0.31494
0.3501
0.31982
0.30029
0.33984
0.35986
0.3501
0.35986
0.37012
0.36523
0.35986
0.39014
0.375
0.43506
0.43506
0.48486
0.52002
0.51514
0.56494
0.62012
0.62988
0.60986
0.65479
0.63477
0.66016
0.62988
0.60986
0.58984
0.62988
0.5498
0.52979
0.5
0.49023
0.49023
0.5
0.50488
0.48486
0.45996
0.49023
0.45996
0.46484
0.49512
0.46484
0.47021
0.47998
0.47021
0.4751
0.50488
0.48486
0.47021
0.48486
0.44482
0.4248
0.44482
0.43018
0.41992
0.41504
0.41992
0.3999
0.41992
0.3999
0.41504
0.40479
0.43018
0.41992
0.43994
0.4248
0.44482
0.45508
0.4248
0.38525
0.33008
0.29492
0.6001
1.0449
1.395
1.4497
0.79492
0.4502
0.29004
0.27002
0.29004
0.31006
0.3252
0.33008
0.3252
0.35986
0.31982
0.3252
0.33496
0.33008
0.35986
0.33984
0.33496
0.38525
0.43506
0.44482
0.4248
0.46484
0.50977
0.5498
0.58984
0.58496
0.61475
0.64014
0.62988
0.65479
0.64502
0.60498
0.60986
0.60498
0.62988
0.58496
0.56006
0.56006
0.58496
0.52979
0.54004
0.5249
0.53516
0.48486
0.49023
0.4751
0.49023
0.4751
0.46484
0.50977
0.51514
0.4502
0.45996
0.46484
0.45996
0.50977
0.4751
0.50977
0.49023
0.49512
0.46484
0.4502
0.43018
0.44482
0.41504
0.43506
0.45508
0.41016
0.3999
0.43994
0.41016
0.40479
0.43018
0.47998
0.4502
0.43506
0.46484
0.45508
0.49023
0.51514
0.41016
0.43018
0.45996
0.4248
0.36523
0.33008
0.55518
0.96973
1.3799
1.5
0.98975
0.56494
0.31494
0.26025
0.33984
0.35498
0.35986
0.3501
0.3252
0.33984
0.34521
0.33984
0.33008
0.35986
0.37012
0.35498
0.37988
0.3999
0.39502
0.43506
0.43018
0.48486
0.51514
0.51514
0.55518
0.61475
0.625
0.64014
0.60986
0.62012
0.625
0.60986
0.625
0.62988
0.6001
0.58008
0.58984
0.56494
0.54492
0.53516
0.5498
0.54004
0.54492
0.49023
0.50488
0.4751
0.45508
0.46484
0.47998
0.49023
0.48486
0.47021
0.4751
0.46484
0.49023
0.5
0.46484
0.4751
0.47021
0.5
0.45508
0.43994
0.4248
0.45508
0.43506
0.4502
0.46484
0.43994
0.41992
0.43018
0.4248
0.45996
0.44482
0.4502
0.3999
0.41992
0.39502
0.41504
0.41016
0.4248
0.41016
0.4248
0.41016
0.43018
0.43506
0.41504
0.43506
0.43018
0.44482
0.4248
0.45508
0.4502
0.4248
0.35498
0.38525
0.625
1.0298
1.395
1.4697
0.81006
0.4502
0.24023
0.2251
0.28027
0.31494
0.3252
0.35498
0.3501
0.35498
0.35498
0.36523
0.39014
0.38525
0.36523
0.3501
0.39014
0.41504
0.40479
0.41992
0.43994
0.4751
0.54004
0.5752
0.60498
0.64014
0.6748
0.66992
0.71484
0.70508
0.7002
0.7002
0.7251
0.66504
0.625
0.60498
0.60986
0.58984
0.64502
0.58984
0.53516
0.55518
0.56006
0.56982
0.56006
0.53516
0.50488
0.5
0.50977
0.5249
0.47998
0.47021
0.51514
0.5
0.50977
0.51514
0.47998
0.48486
0.45508
0.47998
0.49023
0.46484
0.43994
0.4248
0.45996
0.44482
0.41504
0.43506
0.45996
0.41504
0.43018
0.41992
0.4248
0.3999
0.40479
0.41992
0.4248
0.38525
0.3999
0.41504
0.36523
0.375
0.41504
0.41992
0.43506
0.41016
0.4502
0.43018
0.43506
0.37988
0.34521
0.45996
0.83496
1.25
1.5
1.1899
0.68994
0.3501
0.24023
0.2749
0.31982
0.3501
0.375
0.36523
0.33008
0.3501
0.35986
0.36523
0.33496
0.3501
0.37012
0.375
0.36523
0.39502
0.41504
0.4502
0.4502
0.50488
0.5498
0.53516
0.6001
0.58496
0.64502
0.65479
0.6748
0.7002
0.71484
0.66016
0.63477
0.60986
0.61475
0.56006
0.58008
0.58496
0.5498
0.55518
0.50977
0.5249
0.51514
0.50977
0.49512
0.5
0.48486
0.43994
0.43018
0.46484
0.45996
0.4502
0.4502
0.45996
0.43994
0.49023
0.43506
0.4751
0.45996
0.4502
0.4502
0.47998
0.46484
0.46484
0.43506
0.46484
0.47998
0.46484
0.41016
0.3999
0.43994
0.41992
0.43994
0.37988
0.31982
0.40479
0.77979
1.2246
1.4849
1.1147
0.64502
0.3252
0.26025
0.25
0.34521
0.3252
0.30518
0.3252
0.36523
0.37012
0.375
0.37012
0.375
0.37012
0.37988
0.36523
0.39014
0.37988
0.41992
0.43994
0.41992
0.48486
0.5249
0.56006
0.6001
0.62012
0.62988
0.65479
0.65479
0.6499
0.68018
0.68994
0.58496
0.58008
0.59521
0.52979
0.54004
0.5249
0.49512
0.47998
0.46484
0.48486
0.49512
0.47021
0.5
0.4502
0.44482
0.43994
0.48486
0.4751
0.48486
0.4751
0.47021
0.45996
0.46484
0.4502
0.47021
0.45996
0.47021
0.39014
0.41992
0.41016
0.40479
0.43506
0.4248
0.43994
0.41504
0.41992
0.40479
0.41992
0.39014
0.4248
0.4248
0.39502
0.37012
0.37988
0.39014
0.39502
0.38525
0.43994
0.3999
0.39502
0.41504
0.43018
0.43994
0.39502
0.39014
0.41016
0.41504
0.37988
0.3999
0.41016
0.43018
0.41992
0.43018
0.41504
0.46484
0.43506
0.41992
0.43994
0.43506
0.4502
0.41504
0.35986
0.4248
0.73486
1.1348
1.48
1.2847
0.71484
0.37988
0.22021
0.20996
0.26514
0.31982
0.3501
0.35498
0.3501
0.375
0.35498
0.375
0.3501
0.34521
0.36523
0.37988
0.39502
0.40479
0.43018
0.41992
0.46484
0.49512
0.54004
0.52979
0.58984
0.60498
0.61475
0.66504
0.68994
0.6748
0.7002
0.70996
0.71484
0.66016
0.6748
0.6499
0.64014
0.625
0.60986
0.62012
0.56006
0.53516
0.49023
0.51514
0.51514
0.5249
0.5
0.50977
0.49512
0.50488
0.48486
0.50488
0.48486
0.53516
0.5
0.49512
0.50488
0.47998
0.49023
0.4502
0.43506
0.4502
0.43506
0.41992
0.43018
0.41504
0.41016
0.44482
0.4248
0.40479
0.44482
0.43994
0.43994
0.46484
0.48486
0.39502
0.41504
0.41992
0.40479
0.41504
0.39502
0.41992
0.41504
0.39014
0.41504
0.39014
0.41504
0.3999
0.39502
0.43018
0.45996
0.46484
0.43018
0.4248
0.4502
0.43018
0.41504
0.43506
0.43994
0.43018
0.43994
0.43994
0.4248
0.45508
0.43994
0.47021
0.48486
0.4248
0.4502
0.72998
1.1548
1.4746
1.5
0.75488
0.3501
0.20508
0.19531
0.2749
0.31982
0.30518
0.31494
0.33008
0.375
0.36523
0.375
0.37012
0.37988
0.37012
0.39502
0.39014
0.38525
0.36523
0.39014
0.41016
0.43994
0.50488
0.55518
0.61475
0.60986
0.65479
0.6499
0.7251
0.69482
0.6748
0.68018
0.68506
0.64502
0.64014
0.5752
0.56494
0.56982
0.58496
0.54492
0.55518
0.51514
0.5
0.49512
0.51514
0.5
0.50977
0.51514
0.48486
0.4751
0.49512
0.48486
0.49023
0.45508
0.43994
0.45996
0.43018
0.45996
0.45508
0.47998
0.49023
0.48486
0.46484
0.46484
0.43018
0.41992
0.45996
0.41016
0.41504
0.4248
0.40479
0.39502
0.44482
0.45996
0.41504
0.40479
0.33008
0.375
0.60986
1.0347
1.4048
1.4546
0.89502
0.45996
0.31982
0.29492
0.3252
0.30518
0.31494
0.30518
0.33008
0.33984
0.31982
0.33984
0.37012
0.38525
0.36523
0.37012
0.41016
0.39014
0.40479
0.43506
0.46484
0.49512
0.47021
0.53516
0.55518
0.58008
0.61475
0.60986
0.625
0.6499
0.64502
0.66504
0.63477
0.64502
0.56006
0.56494
0.56006
0.5752
0.5
0.48486
0.5249
0.5
0.48486
0.45996
0.47998
0.49023
0.46484
0.4502
0.46484
0.4502
0.48486
0.49512
0.43994
0.4248
0.44482
0.47021
0.48486
0.44482
0.47021
0.45508
0.43994
0.43018
0.43506
0.41992
0.41992
0.43506
0.4502
0.4248
0.41992
0.45996
0.43994
0.3999
0.43018
0.44482
0.35986
0.3252
0.43018
0.83008
1.2246
1.4448
1.0898
0.6499
0.33984
0.26514
0.28027
0.29492
0.30029
0.31006
0.30029
0.33984
0.34521
0.37988
0.39502
0.37988
0.37012
0.39502
0.375
0.35986
0.37012
0.38525
0.41992
0.43994
0.47021
0.50977
0.5498
0.56494
0.60498
0.62988
0.6499
0.66016
0.66504
0.65479
0.64014
0.625
0.60498
0.58008
0.56494
0.52979
0.52002
0.49023
0.52002
0.49512
0.47021
0.5
0.48486
0.51514
0.47998
0.50977
0.49512
0.49512
0.48486
0.48486
0.50488
0.47021
0.47998
0.47021
0.46484
0.47998
0.45996
0.44482
0.4248
0.41016
0.43018
0.40479
0.4248
0.4502
0.41504
0.4248
0.43018
0.38525
0.39502
0.4248
0.43994
0.45996
0.46484
0.3999
0.39502
0.43018
0.43994
0.39502
0.41992
0.3999
0.41016
0.41992
0.38525
0.33008
0.43994
0.69482
1.1299
1.4546
1.4648
0.79492
0.41504
0.24023
0.2251
0.27002
0.31494
0.31982
0.29004
0.31494
0.30029
0.33008
0.33496
0.33008
0.34521
0.35498
0.35986
0.37012
0.375
0.41016
0.43506
0.43018
0.46484
0.48486
0.50977
0.5498
0.55518
0.58008
0.59521
0.60498
0.62988
0.64502
0.65479
0.65479
0.64014
0.58008
0.58008
0.56982
0.53516
0.49023
0.50977
0.47021
0.49512
0.49023
0.47021
0.45508
0.49023
0.45508
0.43994
0.4751
0.48486
0.43506
0.47021
0.48486
0.47021
0.45508
0.44482
0.49023
0.43994
0.43018
0.43994
0.41016
0.39502
0.43994
0.40479
0.41992
0.41016
0.43994
0.43506
0.41016
0.41992
0.39502
0.41504
0.41504
0.39502
0.40479
0.38525
0.37012
0.41992
0.41016
0.39502
0.35498
0.31006
0.45996
0.83984
1.2847
1.5
1.1196
0.62988
0.31006
0.27002
0.28027
0.31006
0.3252
0.30518
0.31494
0.34521
0.33984
0.33496
0.37012
0.375
0.35498
0.39014
0.36523
0.39014
0.41504
0.4248
0.43994
0.43018
0.48486
0.5249
0.56982
0.60498
0.61475
0.64014
0.68506
0.68994
0.66504
0.65479
0.63477
0.625
0.64014
0.60498
0.60498
0.58496
0.56006
0.50488
0.49512
0.4751
0.46484
0.49512
0.4751
0.48486
0.4502
0.4751
0.48486
0.49512
0.46484
0.50488
0.48486
0.46484
0.48486
0.5249
0.48486
0.51514
0.49023
0.43994
0.41992
0.43018
0.41016
0.43994
0.4248
0.41992
0.40479
0.3999
0.43506
0.45996
0.46484
0.4502
0.43506
0.43018
0.46484
0.43994
0.37988
0.33496
0.5498
0.93506
1.2998
1.3999
0.95508
0.53516
0.2749
0.21484
0.27002
0.29492
0.31982
0.33496
0.33008
0.33984
0.3501
0.35498
0.37012
0.35498
0.34521
0.39014
0.375
0.39014
0.41504
0.4248
0.43506
0.4751
0.49023
0.51514
0.52979
0.56982
0.61475
0.625
0.64502
0.65479
0.62988
0.64014
0.60986
0.60498
0.60498
0.60986
0.58496
0.58984
0.55518
0.52979
0.5498
0.55518
0.48486
0.47998
0.5
0.48486
0.51514
0.51514
0.49512
0.49023
0.47998
0.5
0.54492
0.45996
0.43994
0.49023
0.52979
0.50488
0.48486
0.44482
0.43506
0.41504
0.41016
0.43506
0.41992
0.38525
0.40479
0.39502
0.38525
0.3999
0.41992
0.43506
0.43018
0.43994
0.41016
0.43018
0.43994
0.4248
0.4502
0.43018
0.41504
0.43994
0.44482
0.39502
0.39014
0.41992
0.41992
0.41504
0.39502
0.41016
0.43018
0.43994
0.4248
0.4502
0.49023
0.48486
0.46484
0.45996
0.46484
0.375
0.49512
0.84473
1.2598
1.4346
1.0747
0.59521
0.30518
0.22998
0.28516
0.31982
0.35986
0.34521
0.35498
0.36523
0.39014
0.375
0.3999
0.37012
0.35986
0.34521
0.3252
0.35986
0.39014
0.4248
0.43506
0.4751
0.50488
0.53516
0.55518
0.64014
0.62012
0.6499
0.66016
0.68018
0.71484
0.70508
0.7002
0.70996
0.6748
0.65479
0.60986
0.58496
0.56006
0.58496
0.54492
0.50977
0.50977
0.49023
0.48486
0.4751
0.49023
0.47998
0.49512
0.47998
0.50977
0.52002
0.52979
0.5
0.51514
0.47998
0.47021
0.45996
0.49512
0.45996
0.43994
0.45996
0.41992
0.44482
0.43018
0.4248
0.44482
0.43994
0.43506
0.41504
0.41992
0.43018
0.43994
0.4502
0.47998
0.45508
0.41016
0.41992
0.40479
0.41992
0.40479
0.37988
0.35498
0.31982
0.40479
0.75488
1.1899
1.4648
1.2246
0.75
0.40479
0.25488
0.29492
0.375
0.37988
0.3501
0.35986
0.3501
0.37012
0.33008
0.3501
0.33984
0.35498
0.3501
0.39502
0.37988
0.37012
0.41992
0.47021
0.48486
0.51514
0.55518
0.58984
0.6001
0.62988
0.66016
0.6748
0.65479
0.66016
0.6499
0.62988
0.58984
0.56006
0.6001
0.56982
0.55518
0.55518
0.52002
0.50977
0.52979
0.47021
0.46484
0.4502
0.47998
0.43994
0.4248
0.45996
0.45508
0.47021
0.47998
0.49512
0.4751
0.48486
0.45508
0.44482
0.43994
0.47998
0.4502
0.43994
0.41504
0.43506
0.41992
0.4248
0.41992
0.43506
0.4248
0.41992
0.41504
0.43994
0.375
0.3252
0.3999
0.72998
1.125
1.3799
1.0649
0.62988
0.37988
0.28027
0.31006
0.30029
0.31006
0.3252
0.34521
0.31006
0.31494
0.3501
0.33984
0.3252
0.37012
0.375
0.37012
0.39502
0.39014
0.41992
0.41504
0.43506
0.46484
0.50977
0.54004
0.56006
0.6001
0.625
0.6001
0.64014
0.66016
0.65479
0.62012
0.61475
0.625
0.62988
0.58496
0.5752
0.5249
0.52002
0.49023
0.5
0.48486
0.51514
0.47021
0.47021
0.45996
0.47998
0.48486
0.48486
0.5
0.50977
0.50488
0.51514
0.50977
0.51514
0.52979
0.45996
0.43506
0.41992
0.41504
0.43994
0.4248
0.41504
0.41992
0.41016
0.43994
0.4248
0.44482
0.41992
0.43506
0.43994
0.45508
0.4248
0.44482
0.41992
0.39502
0.41016
0.37988
0.3999
0.39014
0.40479
0.39502
0.4248
0.41016
0.45996
0.47998
0.45508
0.43994
0.45508
0.46484
0.47998
0.44482
0.45996
0.41992
0.44482
0.45508
0.41992
0.43994
0.41504
0.43994
0.45996
0.46484
0.4751
0.4502
0.47998
0.49023
0.47998
0.45996
0.44482
0.49023
0.47021
0.48486
0.49023
0.45508
0.46484
0.45508
0.37012
0.3501
0.66504
1.1099
1.4399
1.4849
0.87012
0.4751
0.25488
0.22998
0.31982
0.3501
0.35986
0.33008
0.31982
0.37012
0.37988
0.35498
0.3501
0.375
0.39014
0.35498
0.375
0.37012
0.41992
0.43018
0.43994
0.43506
0.49023
0.52002
0.56494
0.60498
0.63477
0.66504
0.70508
0.68994
0.7251
0.69482
0.6499
0.65479
0.63477
0.64502
0.59521
0.58008
0.56006
0.56494
0.53516
0.54004
0.52002
0.54492
0.49023
0.50977
0.52979
0.51514
0.50488
0.50977
0.47998
0.45996
0.4502
0.46484
0.47021
0.45996
0.50977
0.45996
0.47998
0.48486
0.49023
0.45508
0.45996
0.47021
0.48486
0.45508
0.4502
0.43506
0.43994
0.41992
0.39502
0.37012
0.3999
0.39014
0.41992
0.41016
0.39502
0.375
0.41504
0.43506
0.41992
0.45508
0.41504
0.33496
0.41992
0.7749
1.21
1.4849
1.1997
0.68506
0.34521
0.24023
0.22021
0.30029
0.30518
0.31982
0.33008
0.3252
0.35986
0.33496
0.375
0.39014
0.39502
0.38525
0.38525
0.40479
0.41016
0.44482
0.41016
0.39502
0.51514
0.50488
0.54492
0.6001
0.65479
0.66016
0.68506
0.7002
0.71973
0.70508
0.70996
0.6748
0.6499
0.61475
0.6001
0.60986
0.54492
0.5498
0.49512
0.50488
0.49023
0.51514
0.52979
0.49512
0.49023
0.5
0.49023
0.52002
0.50488
0.50977
0.49512
0.49512
0.4502
0.44482
0.47998
0.49023
0.45508
0.46484
0.45996
0.45996
0.43018
0.46484
0.43994
0.45996
0.43506
0.43018
0.4751
0.43994
0.4502
0.41504
0.41992
0.35986
0.30029
0.46484
0.87988
1.2349
1.4048
1.02
0.6001
0.33008
0.28027
0.29492
0.3252
0.3252
0.34521
0.30518
0.30029
0.33496
0.3252
0.33984
0.3501
0.33496
0.37988
0.41016
0.37988
0.41992
0.47021
0.47998
0.50488
0.53516
0.52979
0.55518
0.56006
0.59521
0.60498
0.60498
0.58984
0.58496
0.58984
0.6001
0.58008
0.60986
0.62012
0.58496
0.54004
0.50488
0.5
0.49023
0.46484
0.4751
0.47998
0.4502
0.45996
0.43994
0.46484
0.44482
0.46484
0.4502
0.46484
0.45996
0.49023
0.49023
0.49512
0.4502
0.45508
0.41504
0.4502
0.45508
0.43506
0.45996
0.43506
0.43994
0.4248
0.38525
0.375
0.3999
0.4248
0.43994
0.4248
0.47021
0.41992
0.43506
0.44482
0.39014
0.38525
0.38525
0.36523
0.41016
0.38525
0.41504
0.43506
0.44482
0.45508
0.43994
0.4248
0.44482
0.37012
0.44482
0.76514
1.1548
1.4546
1.1948
0.70996
0.33496
0.18994
0.24023
0.2749
0.31494
0.33984
0.34521
0.375
0.37012
0.41016
0.40479
0.39014
0.38525
0.38525
0.39502
0.40479
0.39502
0.43018
0.45508
0.44482
0.48486
0.52002
0.54004
0.5498
0.61475
0.6499
0.65479
0.6748
0.7002
0.69482
0.65479
0.65479
0.6499
0.62988
0.625
0.58496
0.56982
0.53516
0.51514
0.53516
0.49023
0.48486
0.5
0.52979
0.53516
0.55518
0.50488
0.48486
0.50977
0.51514
0.5
0.50977
0.46484
0.49512
0.46484
0.44482
0.43506
0.4751
0.43506
0.44482
0.45996
0.4751
0.43506
0.47021
0.45508
0.41504
0.41016
0.43506
0.41992
0.41504
0.4502
0.40479
0.41016
0.40479
0.41504
0.43018
0.43994
0.41016
0.36523
0.34521
0.54492
0.94971
1.3599
1.48
0.96484
0.53516
0.30518
0.24023
0.2749
0.29492
0.31494
0.3252
0.33008
0.33984
0.31982
0.35498
0.37988
0.34521
0.33984
0.375
0.35498
0.35498
0.3501
0.3999
0.44482
0.46484
0.48486
0.5498
0.58984
0.62988
0.64014
0.6499
0.64014
0.66504
0.66016
0.68018
0.68994
0.61475
0.58496
0.55518
0.54004
0.56494
0.52979
0.50488
0.52979
0.5249
0.47998
0.45996
0.49023
0.50977
0.4751
0.46484
0.49023
0.4751
0.49023
0.48486
0.5
0.49023
0.4751
0.46484
0.51514
0.50488
0.49023
0.45508
0.4502
0.47998
0.45508
0.43018
0.4248
0.46484
0.43994
0.45508
0.40479
0.39502
0.40479
0.4248
0.41992
0.41016
0.39014
0.4248
0.43994
0.43018
0.41504
0.43506
0.43018
0.43994
0.3999
0.3501
0.44482
0.77002
1.1499
1.4399
1.1899
0.71484
0.3501
0.25488
0.2749
0.31494
0.3252
0.31982
0.34521
0.33496
0.37988
0.33496
0.39014
0.37012
0.37012
0.35498
0.37012
0.36523
0.37012
0.35498
0.41992
0.43994
0.47021
0.48486
0.54004
0.56006
0.62012
0.65479
0.6499
0.6748
0.66504
0.62988
0.625
0.64014
0.60986
0.65479
0.56982
0.51514
0.53516
0.54492
0.5249
0.5249
0.51514
0.53516
0.50977
0.50488
0.53516
0.54004
0.49512
0.50977
0.50488
0.54004
0.4751
0.50977
0.51514
0.47021
0.4751
0.43994
0.45996
0.4248
0.4248
0.41504
0.45508
0.41992
0.41504
0.43994
0.45508
0.39502
0.41504
0.41992
0.4248
0.41016
0.43994
0.41016
0.41504
0.4248
0.41504
0.43994
0.43506
0.45508
0.46484
0.44482
0.39502
0.37012
0.38525
0.39502
0.38525
0.43506
0.41016
0.44482
0.43018
0.4248
0.43018
0.45996
0.43994
0.43018
0.4502
0.43994
0.44482
0.45508
0.43506
0.45996
0.45508
0.47021
0.45508
0.41992
0.4751
0.75977
1.1851
1.4849
1.2349
0.70508
0.36523
0.2251
0.21484
0.28516
0.31006
0.33496
0.3501
0.36523
0.35498
0.3501
0.37988
0.39502
0.43506
0.37988
0.37012
0.4248
0.43506
0.45996
0.50488
0.53516
0.51514
0.52002
0.55518
0.5752
0.59521
0.62988
0.61475
0.65479
0.6499
0.6748
0.66016
0.6748
0.66992
0.66992
0.65479
0.60986
0.58984
0.58496
0.5752
0.53516
0.53516
0.54492
0.52002
0.48486
0.45996
0.4502
0.47021
0.45996
0.47998
0.46484
0.47998
0.49023
0.4502
0.43506
0.48486
0.46484
0.48486
0.46484
0.46484
0.4502
0.47021
0.4502
0.43018
0.44482
0.49023
0.41992
0.3999
0.41504
0.39014
0.41016
0.39502
0.41992
0.40479
0.39014
0.38525
0.40479
0.4248
0.38525
0.31982
0.49512
0.89014
1.3047
1.46
1.02
0.55518
0.28027
0.20996
0.27002
0.29004
0.30518
0.30029
0.3501
0.33008
0.31982
0.33984
0.36523
0.3501
0.375
0.38525
0.37012
0.3999
0.41992
0.44482
0.43994
0.43018
0.45508
0.49512
0.54004
0.56494
0.56006
0.60986
0.625
0.6499
0.65479
0.64502
0.6748
0.60986
0.625
0.56982
0.56006
0.5498
0.53516
0.51514
0.52002
0.4751
0.46484
0.49512
0.46484
0.43506
0.46484
0.45508
0.46484
0.47021
0.5
0.47021
0.48486
0.47998
0.48486
0.47021
0.49023
0.45996
0.48486
0.5
0.47021
0.44482
0.47021
0.4248
0.41992
0.3999
0.44482
0.4502
0.39502
0.41016
0.3999
0.43994
0.41504
0.44482
0.46484
0.44482
0.45508
0.43018
0.43994
0.37988
0.35986
0.70996
1.1147
1.4849
1.5
0.81982
0.40479
0.27002
0.30518
0.3501
0.36523
0.33496
0.33008
0.35498
0.37012
0.34521
0.3501
0.3252
0.3501
0.35986
0.38525
0.41016
0.41992
0.3999
0.47021
0.47998
0.51514
0.54004
0.58984
0.58496
0.62012
0.6001
0.58496
0.625
0.62988
0.62012
0.62988
0.64014
0.60498
0.63477
0.61475
0.58984
0.54004
0.53516
0.54492
0.5249
0.5249
0.5249
0.45996
0.49512
0.5
0.4751
0.47021
0.49023
0.45508
0.4502
0.45996
0.44482
0.49023
0.47021
0.41992
0.44482
0.47021
0.4502
0.45996
0.45508
0.44482
0.41992
0.43994
0.43994
0.45508
0.44482
0.4502
0.3999
0.39502
0.40479
0.40479
0.39502
0.39502
0.4248
0.38525
0.35986
0.31494
0.29492
0.58496
1.0347
1.3999
1.4546
0.86475
0.48486
0.29004
0.26514
0.29492
0.30029
0.30029
0.31006
0.30029
0.3252
0.30518
0.31006
0.31494
0.35498
0.3252
0.36523
0.37988
0.41504
0.44482
0.41992
0.45508
0.48486
0.5
0.49023
0.56006
0.56982
0.58984
0.60498
0.62988
0.62012
0.62988
0.60498
0.62012
0.58496
0.61475
0.59521
0.58984
0.56982
0.52002
0.5
0.52002
0.49023
0.4751
0.47998
0.49023
0.4751
0.44482
0.4502
0.4751
0.47021
0.49023
0.47998
0.5
0.52002
0.47021
0.46484
0.49023
0.4751
0.44482
0.41992
0.4248
0.41504
0.39502
0.41504
0.43018
0.4502
0.46484
0.43506
0.41016
0.45996
0.45508
0.49512
0.4502
0.43994
0.43018
0.41992
0.43994
0.43994
0.4502
0.4248
0.40479
0.3999
0.45508
0.41016
0.43506
0.41504
0.43018
0.4248
0.43994
0.43506
0.43994
0.43994
0.44482
0.4502
0.46484
0.47021
0.4502
0.44482
0.48486
0.44482
0.41992
0.43506
0.4248
0.44482
0.43506
0.45996
0.4502
0.46484
0.46484
0.5
0.48486
0.49023
0.47021
0.43506
0.43018
0.62988
1.0298
1.4146
1.5
0.94482
0.50977
0.28516
0.22021
0.28027
0.31006
0.35986
0.37012
0.3501
0.35986
0.37012
0.40479
0.41016
0.38525
0.37988
0.41016
0.40479
0.39502
0.41504
0.46484
0.47998
0.46484
0.53516
0.52979
0.56006
0.625
0.62012
0.65479
0.66992
0.66504
0.65479
0.66504
0.66992
0.68506
0.66504
0.62988
0.62988
0.62988
0.61475
0.59521
0.56494
0.55518
0.51514
0.5249
0.53516
0.48486
0.47998
0.46484
0.49023
0.48486
0.51514
0.5
0.50977
0.52002
0.50977
0.52979
0.53516
0.52002
0.53516
0.46484
0.43018
0.45996
0.46484
0.46484
0.44482
0.47021
0.4502
0.45996
0.47021
0.4248
0.43506
0.46484
0.37988
0.33496
0.48486
0.90479
1.2998
1.4097
0.95508
0.54492
0.34521
0.25488
0.28516
0.33008
0.31982
0.3252
0.3252
0.33984
0.34521
0.31006
0.36523
0.33984
0.35986
0.375
0.41992
0.39502
0.39014
0.37988
0.44482
0.4751
0.51514
0.5249
0.5498
0.58008
0.60498
0.625
0.66016
0.63477
0.625
0.59521
0.60498
0.59521
0.58496
0.56494
0.53516
0.54004
0.50977
0.52002
0.49512
0.4751
0.45996
0.47998
0.49512
0.45508
0.4502
0.4751
0.48486
0.5
0.4751
0.45996
0.43994
0.46484
0.47021
0.46484
0.4502
0.45508
0.43018
0.41992
0.4248
0.41992
0.43994
0.38525
0.41016
0.41992
0.43994
0.4248
0.41504
0.41016
0.45508
0.43018
0.44482
0.43994
0.41992
0.41016
0.3999
0.41016
0.39502
0.41992
0.3999
0.39502
0.43018
0.43506
0.41016
0.43018
0.44482
0.45996
0.4248
0.45508
0.43994
0.43994
0.43506
0.43018
0.43994
0.4502
0.43506
0.4502
0.33984
0.4502
0.80469
1.2397
1.4497
1.1196
0.65479
0.35986
0.29492
0.29004
0.33984
0.33496
0.37988
0.33496
0.3501
0.34521
0.3501
0.3252
0.34521
0.36523
0.37988
0.38525
0.35986
0.37988
0.43018
0.48486
0.5249
0.53516
0.52979
0.56494
0.61475
0.64502
0.6748
0.68018
0.6499
0.64502
0.62988
0.625
0.6001
0.625
0.62988
0.63477
0.60498
0.62988
0.6001
0.5752
0.5498
0.56006
0.52979
0.5249
0.50488
0.49023
0.51514
0.5
0.48486
0.5
0.51514
0.48486
0.45996
0.44482
0.45996
0.43506
0.4502
0.45996
0.47998
0.45996
0.47021
0.4248
0.44482
0.43994
0.44482
0.43506
0.4502
0.43994
0.45996
0.44482
0.45996
0.43506
0.43994
0.45996
0.43994
0.41992
0.40479
0.39502
0.41992
0.43994
0.41016
0.41992
0.40479
0.43018
0.46484
0.47021
0.44482
0.4502
0.43994
0.45508
0.43994
0.4502
0.43506
0.44482
0.43994
0.4502
0.4248
0.41992
0.43994
0.4502
0.43994
0.45996
0.46484
0.45508
0.49512
0.47998
0.48486
0.45508
0.41504
0.3999
0.5498
0.88477
1.3198
1.5
1.0547
0.58496
0.34521
0.22998
0.27002
0.29492
0.34521
0.3501
0.3501
0.3252
0.36523
0.3501
0.3999
0.41504
0.34521
0.33496
0.35986
0.39502
0.41016
0.44482
0.43994
0.45996
0.45508
0.56006
0.56494
0.61475
0.64014
0.66016
0.6748
0.69482
0.7002
0.65479
0.64014
0.65479
0.60986
0.59521
0.61475
0.58496
0.60498
0.58008
0.56006
0.5498
0.52979
0.51514
0.50977
0.5
0.49512
0.50488
0.48486
0.46484
0.4751
0.44482
0.47998
0.49023
0.50488
0.4751
0.52002
0.50488
0.54004
0.48486
0.49023
0.4502
0.48486
0.47021
0.43994
0.41992
0.45508
0.48486
0.4248
0.41992
0.43994
0.43994
0.4502
0.44482
0.45996
0.4751
0.4502
0.45508
0.43994
0.4248
0.43018
0.4248
0.39014
0.38525
0.43018
0.3999
0.43506
0.39502
0.43506
0.41504
0.43994
0.43506
0.47021
0.45508
0.46484
0.43994
0.4502
0.36523
0.3501
0.66016
1.0498
1.4048
1.4746
0.85498
0.4751
0.29004
0.27002
0.29492
0.3252
0.33984
0.35498
0.3501
0.36523
0.37012
0.33008
0.3501
0.375
0.38525
0.36523
0.375
0.39502
0.41504
0.43506
0.45508
0.45996
0.50977
0.56006
0.55518
0.60986
0.6001
0.60498
0.6499
0.65479
0.6748
0.6499
0.66992
0.6499
0.625
0.58984
0.6001
0.58496
0.54004
0.52979
0.53516
0.51514
0.47998
0.48486
0.44482
0.45996
0.45508
0.47021
0.45508
0.5
0.46484
0.47998
0.49023
0.47021
0.49023
0.45996
0.4502
0.46484
0.45508
0.43994
0.43018
0.41992
0.43506
0.44482
0.4248
0.3999
0.4248
0.41504
0.4248
0.44482
0.45996
0.43018
0.43506
0.3999
0.41992
0.41504
0.45508
0.41016
0.40479
0.39502
0.40479
0.37988
0.3999
0.41016
0.43018
0.43994
0.41992
0.41504
0.45996
0.47021
0.41504
0.41992
0.4248
0.43018
0.43506
0.44482
0.41992
0.44482
0.43506
0.45508
0.37012
0.35986
0.7002
1.1348
1.4448
1.4497
0.76514
0.38525
0.26514
0.23486
0.30518
0.33984
0.35498
0.34521
0.35986
0.37012
0.3252
0.3501
0.37012
0.36523
0.39502
0.37012
0.37012
0.39014
0.4502
0.4502
0.4751
0.5
0.55518
0.56494
0.6001
0.60986
0.66016
0.65479
0.6748
0.66016
0.7002
0.68506
0.6748
0.61475
0.58984
0.62988
0.58984
0.5752
0.58496
0.58984
0.53516
0.5249
0.52002
0.5249
0.48486
0.4751
0.45508
0.49023
0.45508
0.44482
0.47021
0.48486
0.4502
0.47021
0.48486
0.5
0.4751
0.46484
0.5
0.4751
0.44482
0.45996
0.44482
0.43506
0.49023
0.43018
0.4248
0.4248
0.43018
0.41992
0.43994
0.4248
0.43994
0.3999
0.41992
0.41016
0.41992
0.43994
0.4248
0.40479
0.41992
0.4248
0.4502
0.4502
0.43506
0.41992
0.45996
0.48486
0.43506
0.39502
0.37012
0.625
1.0146
1.4146
1.5
0.90479
0.49023
0.26514
0.22998
0.30518
0.30029
0.31982
0.34521
0.37012
0.34521
0.37012
0.35498
0.3501
0.39014
0.39502
0.375
0.37012
0.41016
0.43506
0.4502
0.49023
0.49512
0.47998
0.54004
0.53516
0.625
0.64014
0.66016
0.7002
0.71973
0.6748
0.68994
0.66016
0.64502
0.60986
0.61475
0.58008
0.58496
0.56006
0.5498
0.50977
0.50488
0.48486
0.45996
0.45996
0.47021
0.51514
0.48486
0.49023
0.49023
0.49023
0.48486
0.51514
0.50977
0.51514
0.51514
0.51514
0.4751
0.44482
0.44482
0.43018
0.4502
0.48486
0.45996
0.4502
0.4248
0.44482
0.45508
0.43994
0.45508
0.46484
0.49023
0.43994
0.41992
0.41016
0.43994
0.4248
0.45508
0.43506
0.44482
0.41016
0.40479
0.41992
0.43506
0.40479
0.43018
0.45996
0.41504
0.41992
0.43018
0.43994
0.43994
0.44482
0.44482
0.43994
0.4502
0.45996
0.43018
0.4502
0.46484
0.44482
0.43018
0.44482
0.43994
0.45508
0.45996
0.46484
0.45508
0.45996
0.43506
0.4751
0.47998
0.45996
0.50977
0.47021
0.45508
0.43994
0.41992
0.54492
0.90479
1.3247
1.4746
1.0449
0.58008
0.29004
0.22998
0.27002
0.3252
0.3501
0.37012
0.3501
0.37012
0.37012
0.375
0.37012
0.38525
0.39502
0.39014
0.39502
0.41992
0.41016
0.4248
0.44482
0.43994
0.47021
0.50977
0.55518
0.59521
0.65479
0.64502
0.6748
0.68994
0.70996
0.68018
0.68018
0.6748
0.6499
0.60986
0.625
0.59521
0.5752
0.56494
0.58496
0.5249
0.51514
0.52002
0.49023
0.50977
0.49023
0.46484
0.47021
0.47998
0.47021
0.47998
0.4751
0.49512
0.4502
0.46484
0.46484
0.4751
0.45508
0.47021
0.46484
0.48486
0.5
0.46484
0.43018
0.43994
0.41992
0.44482
0.41504
0.4502
0.45508
0.41504
0.41992
0.3999
0.41992
0.41504
0.43506
0.4248
0.44482
0.4248
0.39502
0.3999
0.4248
0.41504
0.39502
0.3999
0.43506
0.4502
0.44482
0.43506
0.45508
0.43506
0.4248
0.43994
0.47021
0.41504
0.375
0.50488
0.90967
1.2949
1.4497
1.0649
0.58008
0.28516
0.22021
0.27002
0.31006
0.33984
0.31982
0.36523
0.3501
0.38525
0.36523
0.38525
0.35986
0.39014
0.39502
0.33984
0.35498
0.3999
0.41504
0.46484
0.50977
0.50488
0.5249
0.56982
0.625
0.62012
0.68018
0.66992
0.66992
0.6748
0.69482
0.66992
0.6499
0.60986
0.63477
0.5752
0.56494
0.5752
0.56494
0.51514
0.50977
0.53516
0.49023
0.48486
0.49023
0.46484
0.44482
0.45508
0.4751
0.47998
0.47021
0.45508
0.46484
0.45508
0.46484
0.45996
0.48486
0.49023
0.45996
0.4502
0.44482
0.46484
0.41504
0.41016
0.41992
0.4248
0.41016
0.41016
0.39502
0.40479
0.40479
0.41992
0.40479
0.4248
0.41504
0.3999
0.41016
0.43994
0.3999
0.375
0.37988
0.41504
0.43018
0.43506
0.37988
0.41992
0.3999
0.37988
0.41992
0.4248
0.43506
0.41504
0.43994
0.4248
0.43018
0.43994
0.4751
0.48486
0.46484
0.44482
0.43018
0.43506
0.45508
0.45996
0.43994
0.46484
0.44482
0.46484
0.43506
0.46484
0.45508
0.45996
0.45996
0.49512
0.50488
0.5
0.49512
0.5
0.47021
0.43018
0.39502
0.58008
0.95996
1.3896
1.4946
1.0347
0.55518
0.31006
0.25
0.29004
0.33496
0.35498
0.39502
0.3999
0.40479
0.3501
0.3999
0.41992
0.375
0.34521
0.39502
0.37012
0.36523
0.39502
0.41992
0.4248
0.47998
0.46484
0.51514
0.5752
0.60986
0.65479
0.68018
0.73975
0.70996
0.71484
0.70508
0.7251
0.6499
0.625
0.58984
0.6001
0.58496
0.58984
0.54004
0.54492
0.52002
0.5
0.49023
0.53516
0.52979
0.5249
0.53516
0.50977
0.45996
0.4502
0.47998
0.46484
0.47021
0.45508
0.4248
0.41992
0.45508
0.44482
0.4502
0.4502
0.43994
0.45996
0.45508
0.45996
0.45508
0.44482
0.4751
0.43506
0.41504
0.39502
0.40479
0.41992
0.43994
0.40479
0.39014
0.3999
0.41992
0.41992
0.4248
0.43506
0.41992
0.43018
0.4248
0.41016
0.40479
0.39014
0.39502
0.41992
0.39014
0.4248
0.44482
0.41992
0.4502
0.4751
0.41016
0.45996
0.43506
0.45996
0.46484
0.37012
0.4248
0.68994
1.1196
1.4746
1.5
0.7749
0.39014
0.24023
0.20996
0.24512
0.31494
0.33008
0.35986
0.38525
0.36523
0.3501
0.37012
0.39502
0.4248
0.3999
0.4248
0.43506
0.41016
0.39502
0.4248
0.43018
0.44482
0.50977
0.53516
0.56982
0.59521
0.64014
0.66992
0.68018
0.7251
0.71973
0.7002
0.70508
0.68506
0.68018
0.68506
0.61475
0.56006
0.54492
0.50488
0.48486
0.49023
0.44482
0.45996
0.41016
0.43018
0.46484
0.45996
0.45508
0.4751
0.50488
0.53516
0.54004
0.50488
0.49023
0.5
0.50488
0.46484
0.4751
0.46484
0.43994
0.47021
0.4751
0.44482
0.3999
0.40479
0.3999
0.41992
0.41992
0.4502
0.39502
0.37988
0.41992
0.41016
0.38525
0.39502
0.40479
0.39502
0.4248
0.41992
0.45508
0.44482
0.46484
0.40479
0.39014
0.37988
0.4248
0.40479
0.43018
0.40479
0.41504
0.4248
0.45996
0.47021
0.43994
0.45508
0.43018
0.45508
0.4502
0.47021
0.45996
0.4502
0.43994
0.45508
0.43506
0.41992
0.41504
0.4248
0.43994
0.41992
0.4502
0.43994
0.46484
0.47998
0.49023
0.47998
0.5
0.46484
0.4751
0.43018
0.41504
0.48486
0.83496
1.2598
1.5
1.1348
0.65479
0.36523
0.26025
0.25
0.35986
0.375
0.38525
0.35498
0.37012
0.36523
0.41016
0.39502
0.41016
0.37988
0.38525
0.36523
0.37012
0.37988
0.40479
0.43506
0.5
0.5249
0.50488
0.56006
0.58496
0.625
0.69482
0.71973
0.70996
0.7251
0.7251
0.7251
0.70996
0.68018
0.63477
0.6499
0.60986
0.59521
0.56982
0.56494
0.54004
0.54492
0.52002
0.50977
0.51514
0.5
0.5249
0.50977
0.49512
0.50488
0.5
0.47998
0.5498
0.47998
0.49023
0.48486
0.52979
0.47021
0.46484
0.4751
0.49512
0.47998
0.4751
0.45508
0.44482
0.45996
0.47021
0.43994
0.45508
0.46484
0.44482
0.4248
0.43994
0.45508
0.44482
0.4502
0.43994
0.4502
0.45996
0.43018
0.3999
0.41992
0.4248
0.43506
0.4248
0.41504
0.41992
0.4248
0.43994
0.41992
0.36523
0.41992
0.7251
1.1797
1.4946
1.2798
0.7749
0.41992
0.24023
0.22021
0.28516
0.31494
0.31494
0.30518
0.33008
0.35498
0.37012
0.37012
0.39014
0.41504
0.3999
0.41016
0.39502
0.41016
0.4248
0.43994
0.47021
0.49512
0.49023
0.53516
0.5498
0.58008
0.64014
0.7002
0.69482
0.7002
0.66504
0.6748
0.6499
0.625
0.60986
0.61475
0.56006
0.56494
0.5498
0.52979
0.50977
0.51514
0.53516
0.48486
0.47021
0.5
0.4751
0.46484
0.45508
0.47021
0.46484
0.47021
0.45508
0.44482
0.47998
0.45996
0.4751
0.48486
0.45508
0.44482
0.47998
0.48486
0.49023
0.4751
0.49512
0.43994
0.43994
0.44482
0.41504
0.39502
0.43994
0.41016
0.33984
0.2749
0.3999
0.79492
1.2349
1.3896
1.0146
0.60498
0.35986
0.29004
0.33984
0.33008
0.3252
0.35986
0.31494
0.3252
0.30518
0.3252
0.30518
0.34521
0.31494
0.34521
0.375
0.39014
0.39502
0.41016
0.43506
0.47998
0.46484
0.50488
0.56982
0.60498
0.62012
0.64014
0.69482
0.7002
0.68018
0.6748
0.65479
0.63477
0.59521
0.55518
0.56006
0.51514
0.52002
0.51514
0.48486
0.4751
0.49023
0.4751
0.49512
0.46484
0.4751
0.49023
0.4751
0.50488
0.54004
0.52002
0.54492
0.64014
0.79004
0.99512
1.2847
1.5
1.5
1.5
1.5
1.5
1.5
1.5
1.5
1.4849
1
0.3999
0.044922
-0.084961
-0.15479
-0.22461
-0.21484
-0.23486
-0.26465
-0.27979
-0.31494
-0.30957
-0.2998
-0.32471
-0.34473
-0.35498
-0.34961
-0.35498
-0.34961
-0.33496
-0.27979
-0.28467
-0.24463
-0.19482
-0.15479
-0.099609
-0.0048828
0.035156
0.1001
0.16016
0.24023
0.28516
0.34521
0.40479
0.44482
0.47021
0.51514
0.51514
0.56006
0.52979
0.52002
0.5498
0.56006
0.5498
0.53516
0.56006
0.54492
0.5752
0.56006
0.5498
0.52979
0.5752
0.52979
0.53516
0.51514
0.49023
0.49512
0.51514
0.49512
0.49023
0.47998
0.53516
0.5
0.4751
0.49023
0.47021
0.50488
0.51514
0.47998
0.47021
0.5
0.49023
0.5
0.49512
0.48486
0.49023
0.47998
0.49512
0.50488
0.48486
0.49023
0.47998
0.47021
0.51514
0.49023
0.51514
0.47998
0.51514
0.49023
0.52002
0.49512
0.49023
0.49023
0.50488
0.49023
0.48486
0.49512
0.46484
0.43506
0.50977
0.80469
1.2397
1.5
1.335
0.80469
0.43506
0.31982
0.30029
0.3501
0.375
0.37988
0.37012
0.3999
0.41992
0.36523
0.35986
0.39502
0.3999
0.43506
0.44482
0.4248
0.41016
0.45508
0.4751
0.54004
0.56006
0.5249
0.56982
0.58496
0.64502
0.66992
0.68506
0.71484
0.70508
0.7002
0.7251
0.7002
0.71484
0.7002
0.68018
0.66016
0.6748
0.58984
0.59521
0.56006
0.5752
0.52979
0.54492
0.50488
0.53516
0.50977
0.50488
0.5249
0.53516
0.51514
0.50977
0.49512
0.50977
0.4751
0.47021
0.4751
0.47021
0.47998
0.47021
0.43994
0.43506
0.45996
0.44482
0.45508
0.46484
0.41992
0.41992
0.43506
0.40479
0.41992
0.4248
0.46484
0.40479
0.4248
0.4502
0.46484
0.38525
0.39502
0.41504
0.375
0.31006
0.30029
0.71484
1.125
1.4546
1.2549
0.75488
0.37988
0.23486
0.21484
0.31982
0.33496
0.3501
0.31494
0.33008
0.31982
0.34521
0.33008
0.34521
0.33008
0.35986
0.3501
0.37012
0.37988
0.39014
0.44482
0.43994
0.4751
0.52002
0.52979
0.58008
0.60498
0.61475
0.6748
0.66992
0.62012
0.61475
0.64014
0.6499
0.60986
0.56006
0.58496
0.56006
0.56006
0.5249
0.49512
0.5
0.50488
0.48486
0.4751
0.49512
0.5
0.47021
0.49512
0.50977
0.45996
0.4751
0.44482
0.43018
0.43506
0.45508
0.43994
0.4248
0.41504
0.43994
0.43994
0.4502
0.46484
0.41992
0.41504
0.43018
0.39014
0.41992
0.39502
0.37988
0.41016
0.39014
0.38525
0.39502
0.41504
0.37012
0.33008
0.30518
0.74512
1.1899
1.4497
1.0898
0.64014
0.33984
0.24512
0.24023
0.31006
0.26025
0.2749
0.29492
0.33496
0.33984
0.30029
0.3252
0.35986
0.375
0.37012
0.37012
0.39502
0.39014
0.4248
0.43994
0.43994
0.4751
0.52002
0.5249
0.49023
0.56494
0.58984
0.62988
0.6499
0.68506
0.65479
0.66992
0.63477
0.63477
0.64014
0.62988
0.6001
0.58984
0.51514
0.50488
0.50977
0.49023
0.49023
0.48486
0.49512
0.49023
0.51514
0.51514
0.51514
0.5249
0.54004
0.49512
0.49023
0.47998
0.47021
0.44482
0.4502
0.43018
0.44482
0.43018
0.4502
0.43506
0.45996
0.44482
0.43994
0.46484
0.44482
0.43994
0.44482
0.4502
0.43994
0.4502
0.4248
0.41504
0.39502
0.3999
0.375
0.41504
0.3999
0.43994
0.46484
0.43994
0.4248
0.43506
0.43018
0.4502
0.46484
0.45508
0.46484
0.4502
0.4248
0.3999
0.35498
0.46484
0.875
1.2998
1.4946
1.1147
0.64502
0.33984
0.2749
0.31006
0.3999
0.39502
0.375
0.33496
0.35986
0.36523
0.36523
0.3501
0.36523
0.35986
0.37988
0.41504
0.39502
0.40479
0.4502
0.46484
0.45996
0.5
0.5498
0.5752
0.56006
0.63477
0.62988
0.6499
0.69482
0.70996
0.6499
0.66016
0.65479
0.64502
0.62988
0.62012
0.58008
0.56006
0.54004
0.55518
0.52002
0.5
0.49023
0.50977
0.50977
0.50977
0.51514
0.47998
0.49023
0.47998
0.49512
0.49023
0.5
0.47998
0.44482
0.43506
0.45996
0.43994
0.48486
0.44482
0.45508
0.4502
0.46484
0.45996
0.47021
0.43994
0.43018
0.43994
0.46484
0.41016
0.39014
0.41992
0.41016
0.39014
0.41016
0.37988
0.41504
0.41016
0.40479
0.43506
0.41992
0.45508
0.4502
0.45996
0.39502
0.35986
0.45508
0.79004
1.1997
1.4248
1.0649
0.62988
0.33984
0.2749
0.27002
0.31006
0.33008
0.3501
0.36523
0.36523
0.375
0.3501
0.3501
0.34521
0.33984
0.35986
0.39014
0.35986
0.375
0.41992
0.43506
0.46484
0.51514
0.5249
0.58984
0.59521
0.62988
0.66992
0.65479
0.66016
0.66016
0.65479
0.625
0.60498
0.62012
0.62988
0.625
0.6001
0.56006
0.5249
0.5249
0.52979
0.49512
0.47998
0.46484
0.47021
0.49023
0.45996
0.43994
0.4751
0.45508
0.47021
0.4502
0.4751
0.45508
0.4502
0.4751
0.45508
0.47998
0.4502
0.45996
0.4502
0.45996
0.4248
0.41016
0.3999
0.41016
0.38525
0.39502
0.39502
0.40479
0.3999
0.43018
0.39014
0.41992
0.4248
0.43994
0.39502
0.39502
0.40479
0.4502
0.40479
0.39502
0.41016
0.41016
0.39502
0.41992
0.43994
0.41992
0.4502
0.41016
0.41992
0.43506
0.41504
0.40479
0.41992
0.43994
0.44482
0.46484
0.4751
0.41992
0.43506
0.43994
0.43994
0.43506
0.45508
0.4248
0.41992
0.46484
0.43994
0.43994
0.4502
0.46484
0.45996
0.48486
0.43506
0.43994
0.43506
0.4502
0.39014
0.63477
1.04
1.4399
1.5
0.91504
0.5
0.26514
0.24023
0.31494
0.33008
0.3252
0.35986
0.37012
0.35986
0.37012
0.375
0.37012
0.3999
0.35986
0.37012
0.36523
0.41504
0.39502
0.4248
0.47021
0.49023
0.52979
0.56006
0.58496
0.62988
0.625
0.66016
0.68506
0.70996
0.70508
0.69482
0.6748
0.69482
0.66016
0.625
0.60986
0.62012
0.6001
0.56982
0.56006
0.5498
0.55518
0.54492
0.56982
0.52979
0.45996
0.43018
0.46484
0.4502
0.47021
0.46484
0.46484
0.4751
0.5
0.4502
0.43994
0.4751
0.49023
0.49512
0.51514
0.5249
0.47998
0.45508
0.45996
0.43994
0.41992
0.41504
0.41992
0.39502
0.39014
0.43018
0.39502
0.43018
0.41504
0.44482
0.43018
0.45508
0.43994
0.4248
0.43994
0.43994
0.43994
0.44482
0.41016
0.43506
0.41016
0.40479
0.4248
0.41504
0.47021
0.4751
0.4502
0.45996
0.4502
0.44482
0.47998
0.45508
0.47021
0.43506
0.43994
0.43506
0.44482
0.40479
0.375
0.41992
0.68506
1.1001
1.46
1.4746
0.82471
0.41992
0.24512
0.24023
0.3501
0.33496
0.36523
0.35498
0.34521
0.37988
0.36523
0.37988
0.37012
0.37988
0.35498
0.39502
0.3999
0.4248
0.41016
0.43506
0.4502
0.49023
0.51514
0.56982
0.6001
0.66504
0.65479
0.66016
0.68506
0.6748
0.66016
0.69482
0.66016
0.64502
0.625
0.6001
0.61475
0.6001
0.59521
0.53516
0.51514
0.52979
0.5
0.49023
0.49512
0.50488
0.46484
0.47021
0.45508
0.49023
0.48486
0.49512
0.48486
0.46484
0.45996
0.48486
0.4751
0.45508
0.45996
0.46484
0.46484
0.43994
0.41016
0.44482
0.4502
0.48486
0.43994
0.43994
0.41992
0.45996
0.43994
0.4502
0.46484
0.4502
0.45508
0.46484
0.41016
0.41016
0.39502
0.4502
0.45508
0.45996
0.41504
0.37012
0.43506
0.74512
1.1899
1.4897
1.2197
0.73975
0.41992
0.2749
0.26025
0.29004
0.31982
0.3501
0.3252
0.31494
0.33008
0.3501
0.37988
0.38525
0.36523
0.37988
0.41016
0.41992
0.39502
0.44482
0.46484
0.45508
0.49512
0.54492
0.5498
0.58984
0.62988
0.64502
0.6499
0.68994
0.7002
0.68994
0.69482
0.65479
0.60986
0.6001
0.58008
0.58496
0.53516
0.52002
0.5249
0.50977
0.47021
0.45996
0.46484
0.45996
0.49512
0.49023
0.49512
0.47021
0.50977
0.51514
0.45996
0.46484
0.46484
0.4502
0.46484
0.4502
0.47021
0.4751
0.45508
0.43994
0.45996
0.41504
0.41016
0.43994
0.4248
0.40479
0.39502
0.41504
0.41992
0.3999
0.39502
0.41992
0.43018
0.43994
0.43506
0.41992
0.41016
0.41016
0.44482
0.4502
0.41992
0.39502
0.40479
0.35498
0.31494
0.45996
0.80469
1.25
1.4897
1.1699
0.6748
0.35986
0.27002
0.27002
0.30518
0.33984
0.31982
0.30029
0.31494
0.30518
0.3252
0.34521
0.375
0.36523
0.38525
0.37012
0.39502
0.41016
0.4502
0.45996
0.48486
0.50488
0.52979
0.54492
0.58984
0.60986
0.62988
0.64014
0.62988
0.7002
0.6748
0.66992
0.65479
0.66992
0.60498
0.58984
0.58496
0.56006
0.52002
0.49023
0.48486
0.4751
0.46484
0.47998
0.46484
0.49512
0.47021
0.47998
0.46484
0.49512
0.47998
0.46484
0.50488
0.49023
0.47021
0.45508
0.47998
0.41992
0.45996
0.47021
0.45508
0.43506
0.4502
0.43994
0.47021
0.44482
0.44482
0.41992
0.43506
0.43994
0.3999
0.40479
0.41504
0.43018
0.4248
0.4248
0.43994
0.45508
0.44482
0.46484
0.4502
0.46484
0.43506
0.43994
0.43506
0.45508
0.46484
0.4248
0.40479
0.41992
0.34521
0.44482
0.77002
1.1997
1.4849
1.2549
0.72998
0.41504
0.27002
0.26025
0.33008
0.33984
0.3501
0.34521
0.3501
0.3252
0.36523
0.36523
0.37988
0.37012
0.3999
0.37988
0.3999
0.4248
0.43506
0.41992
0.45996
0.46484
0.51514
0.53516
0.55518
0.56982
0.62012
0.62988
0.66992
0.68018
0.70508
0.66016
0.6499
0.66016
0.62988
0.62012
0.58984
0.56006
0.53516
0.5249
0.4751
0.46484
0.4502
0.46484
0.47998
0.49512
0.48486
0.49512
0.47021
0.49023
0.48486
0.49023
0.5
0.49023
0.4751
0.48486
0.43994
0.41992
0.4502
0.43506
0.43018
0.41992
0.43506
0.4248
0.43994
0.43506
0.41992
0.41992
0.43018
0.43506
0.4502
0.3999
0.40479
0.39502
0.3999
0.37988
0.40479
0.41992
0.40479
0.40479
0.41992
0.41992
0.43994
0.4248
0.41992
0.43994
0.40479
0.41992
0.43018
0.43506
0.41504
0.41992
0.41504
0.43506
0.4248
0.43994
0.43018
0.4502
0.47021
0.4751
0.4248
0.41992
0.46484
0.4502
0.43994
0.45996
0.35986
0.35498
0.65479
1.0649
1.4248
1.48
0.82471
0.43994
0.28027
0.25488
0.3501
0.33008
0.3501
0.3501
0.36523
0.37012
0.35498
0.36523
0.35498
0.3501
0.39014
0.39502
0.41504
0.3999
0.43994
0.46484
0.45508
0.50488
0.54004
0.56006
0.56494
0.6001
0.625
0.69482
0.68018
0.6748
0.69482
0.7251
0.7002
0.68018
0.66504
0.6499
0.61475
0.60986
0.58008
0.55518
0.5249
0.54004
0.49512
0.46484
0.46484
0.4751
0.49512
0.5249
0.50488
0.49512
0.50488
0.47998
0.49512
0.48486
0.50488
0.45996
0.46484
0.45996
0.47021
0.48486
0.46484
0.49023
0.43994
0.4248
0.43994
0.44482
0.43506
0.41992
0.43018
0.41016
0.43506
0.41504
0.3999
0.41992
0.43994
0.41504
0.41992
0.39014
0.41016
0.41504
0.38525
0.33984
0.3252
0.68018
1.105
1.4648
1.4697
0.7998
0.4248
0.27002
0.25488
0.30518
0.30029
0.33496
0.34521
0.33008
0.3252
0.33008
0.31982
0.3501
0.31982
0.33496
0.39014
0.3999
0.39502
0.41992
0.4502
0.45996
0.50977
0.51514
0.55518
0.5752
0.62012
0.61475
0.64014
0.66504
0.6748
0.62988
0.64502
0.60986
0.59521
0.62012
0.60498
0.60986
0.5752
0.52979
0.52002
0.53516
0.46484
0.46484
0.45996
0.4751
0.4248
0.47998
0.44482
0.47021
0.4751
0.46484
0.4751
0.49023
0.49512
0.51514
0.48486
0.49023
0.47021
0.45996
0.45508
0.45996
0.43018
0.41016
0.41992
0.43018
0.4248
0.3999
0.41504
0.43994
0.43506
0.4248
0.45996
0.43506
0.43018
0.4248
0.43506
0.37012
0.33984
0.49023
0.89502
1.29
1.4248
1.02
0.59521
0.30518
0.25
0.29492
0.3252
0.3501
0.33984
0.34521
0.3252
0.37988
0.37012
0.3501
0.36523
0.37012
0.34521
0.35986
0.375
0.3999
0.39502
0.43506
0.45508
0.50977
0.53516
0.56982
0.60498
0.625
0.65479
0.6748
0.66992
0.6499
0.61475
0.60986
0.64502
0.5752
0.56006
0.5752
0.55518
0.51514
0.5249
0.5
0.54492
0.52002
0.4751
0.47021
0.50977
0.47998
0.50977
0.48486
0.47021
0.44482
0.43994
0.4502
0.43994
0.45508
0.48486
0.49512
0.47998
0.48486
0.47998
0.45996
0.43994
0.43506
0.45996
0.43506
0.39502
0.39014
0.37988
0.41016
0.41992
0.3999
0.38525
0.40479
0.39502
0.4248
0.43994
0.41992
0.43994
0.43994
0.43506
0.43506
0.3999
0.33984
0.4502
0.77002
1.2148
1.4546
1.125
0.63477
0.31982
0.26025
0.25488
0.29492
0.3252
0.33008
0.31982
0.33008
0.34521
0.33984
0.35498
0.33496
0.3999
0.37988
0.4248
0.43506
0.39502
0.43994
0.44482
0.47998
0.50977
0.52979
0.51514
0.55518
0.5752
0.61475
0.62988
0.65479
0.6499
0.66016
0.63477
0.6499
0.62012
0.62988
0.58496
0.61475
0.54004
0.53516
0.52002
0.51514
0.49512
0.5
0.51514
0.5
0.48486
0.4751
0.49512
0.45996
0.48486
0.44482
0.45996
0.46484
0.45508
0.46484
0.47998
0.4248
0.43506
0.4248
0.45508
0.48486
0.47998
0.47021
0.4751
0.43994
0.45508
0.46484
0.43994
0.4248
0.41016
0.35986
0.35498
0.37988
0.41992
0.37988
0.3252
0.30029
0.49512
0.93994
1.3896
1.4897
0.89502
0.5249
0.31006
0.2749
0.28516
0.29492
0.28027
0.2749
0.30029
0.31006
0.33496
0.31982
0.33496
0.34521
0.3501
0.39014
0.40479
0.39502
0.4502
0.4502
0.46484
0.4751
0.52979
0.52002
0.56006
0.58984
0.60498
0.58984
0.64014
0.6499
0.62988
0.60986
0.625
0.62988
0.59521
0.56494
0.59521
0.56006
0.5249
0.52979
0.5
0.50488
0.46484
0.45996
0.47021
0.5
0.50977
0.5
0.50977
0.51514
0.49023
0.47021
0.46484
0.46484
0.43994
0.43506
0.4248
0.46484
0.4502
0.41992
0.43018
0.4502
0.4248
0.41992
0.4502
0.4248
0.44482
0.4248
0.41016
0.3999
0.39502
0.39502
0.3999
0.41016
0.4248
0.41992
0.41016
0.40479
0.43018
0.44482
0.4248
0.43018
0.43506
0.41016
0.39014
0.33984
0.43506
0.7998
1.23
1.4746
1.1499
0.66992
0.34521
0.26025
0.29004
0.31494
0.31982
0.31006
0.30518
0.33496
0.3252
0.37012
0.36523
0.33984
0.35986
0.375
0.37012
0.40479
0.41992
0.39014
0.43994
0.46484
0.48486
0.50488
0.51514
0.5752
0.62012
0.66016
0.66016
0.68506
0.69482
0.6499
0.66504
0.64014
0.64502
0.62012
0.6001
0.58008
0.56006
0.54004
0.52002
0.5
0.49023
0.45996
0.47998
0.49023
0.47998
0.49023
0.49023
0.48486
0.47998
0.5
0.48486
0.45996
0.45508
0.49023
0.51514
0.47021
0.4502
0.47998
0.4502
0.46484
0.45508
0.4502
0.44482
0.45996
0.44482
0.45508
0.3999
0.43018
0.43506
0.3999
0.37988
0.41504
0.39502
0.3999
0.4248
0.41016
0.4248
0.43506
0.43994
0.43018
0.4502
0.43018
0.45508
0.41504
0.43506
0.44482
0.37012
0.30029
0.4502
0.84473
1.2246
1.4297
1.1147
0.66016
0.375
0.29004
0.31006
0.33008
0.33984
0.33008
0.34521
0.34521
0.33496
0.31494
0.30518
0.34521
0.3501
0.37988
0.375
0.38525
0.39014
0.43018
0.4502
0.51514
0.5
0.53516
0.55518
0.6001
0.60498
0.62012
0.625
0.6499
0.625
0.64502
0.61475
0.60498
0.60986
0.625
0.59521
0.58008
0.60498
0.5752
0.56982
0.52979
0.50488
0.46484
0.4502
0.44482
0.47021
0.43994
0.43994
0.46484
0.49023
0.4502
0.47998
0.4751
0.50977
0.53516
0.48486
0.49023
0.4751
0.47998
0.48486
0.43506
0.41992
0.43506
0.41992
0.4248
0.41504
0.43018
0.43506
0.4248
0.3999
0.41992
0.41504
0.44482
0.3999
0.43506
0.41992
0.43994
0.44482
0.41992
0.41504
0.4248
0.41504
0.41016
0.43994
0.43506
0.41504
0.38525
0.375
0.60498
1.0449
1.4048
1.4697
0.83496
0.47021
0.28516
0.25488
0.28516
0.33984
0.3252
0.33984
0.33496
0.3501
0.35498
0.37012
0.33984
0.3252
0.37012
0.33496
0.37012
0.36523
0.3999
0.4248
0.47998
0.5
0.52002
0.54492
0.62012
0.62012
0.6748
0.66504
0.6748
0.66016
0.66016
0.6499
0.66504
0.625
0.60498
0.58008
0.58496
0.5498
0.54004
0.5249
0.50488
0.51514
0.5
0.4751
0.47021
0.48486
0.45996
0.48486
0.5
0.47998
0.47021
0.52979
0.4502
0.46484
0.47021
0.49023
0.47021
0.49023
0.4751
0.47021
0.44482
0.43018
0.41504
0.4248
0.43506
0.43994
0.4248
0.41504
0.43506
0.4248
0.41992
0.43018
0.41992
0.40479
0.41504
0.41504
0.41992
0.40479
0.39502
0.41992
0.4248
0.375
0.37988
0.3252
0.44482
0.79492
1.25
1.4697
1.1196
0.65479
0.35986
0.28027
0.30518
0.34521
0.33008
0.30518
0.29004
0.3252
0.30029
0.34521
0.34521
0.36523
0.3501
0.36523
0.39502
0.41992
0.3999
0.4248
0.47021
0.49023
0.49512
0.56006
0.56982
0.58008
0.59521
0.625
0.6499
0.6748
0.66504
0.6748
0.65479
0.66016
0.62012
0.58496
0.60986
0.58008
0.56494
0.53516
0.5498
0.52002
0.50977
0.5
0.50488
0.44482
0.48486
0.47021
0.49023
0.50488
0.48486
0.45508
0.49023
0.45996
0.45508
0.47998
0.45508
0.4502
0.47021
0.4751
0.45996
0.43506
0.43994
0.43018
0.41016
0.40479
0.41992
0.45508
0.4248
0.41992
0.41016
0.44482
0.41992
0.3999
0.41504
0.4248
0.40479
0.3999
0.43018
0.41016
0.41992
0.43018
0.43018
0.44482
0.43994
0.45996
0.46484
0.4248
0.43018
0.41016
0.43506
0.43018
0.4751
0.41016
0.43018
0.41992
0.4248
0.37012
0.41504
0.60498
1.0098
1.375
1.4648
0.8999
0.52002
0.30518
0.27002
0.31006
0.33008
0.3501
0.33984
0.31982
0.31006
0.35498
0.3501
0.39014
0.36523
0.39502
0.3999
0.3999
0.41992
0.41992
0.43994
0.4502
0.48486
0.5249
0.53516
0.52979
0.58496
0.62012
0.65479
0.66992
0.68506
0.66016
0.69482
0.6499
0.66016
0.62012
0.63477
0.58496
0.58496
0.56494
0.5498
0.56006
0.52979
0.5498
0.56006
0.4751
0.52002
0.49023
0.47998
0.45996
0.45508
0.46484
0.47998
0.46484
0.45508
0.46484
0.49023
0.49512
0.47021
0.5
0.52002
0.49512
0.46484
0.44482
0.4248
0.43994
0.40479
0.41992
0.41992
0.39502
0.39014
0.41992
0.41504
0.43506
0.44482
0.3999
0.31494
0.4248
0.79004
1.2197
1.4146
1.04
0.6001
0.33984
0.25488
0.2749
0.30518
0.30029
0.3252
0.34521
0.36523
0.31982
0.3252
0.35986
0.37988
0.3501
0.35498
0.3501
0.37012
0.375
0.3999
0.44482
0.4502
0.5
0.5498
0.56006
0.60498
0.625
0.65479
0.66992
0.6748
0.6748
0.66992
0.64014
0.60986
0.6001
0.56006
0.55518
0.53516
0.50977
0.5
0.5
0.49023
0.5
0.46484
0.46484
0.47998
0.4751
0.50488
0.4751
0.49023
0.47021
0.50977
0.47021
0.46484
0.47021
0.47998
0.4751
0.45508
0.43994
0.46484
0.43506
0.43994
0.41504
0.41016
0.43506
0.41992
0.43994
0.44482
0.38525
0.41992
0.43506
0.43994
0.41992
0.43018
0.41504
0.4248
0.41992
0.4248
0.3999
0.37988
0.41992
0.43506
0.41992
0.38525
0.3501
0.48486
0.89502
1.3096
1.4897
1.0547
0.6001
0.30518
0.22021
0.24512
0.3252
0.3252
0.33984
0.31006
0.31982
0.3252
0.37012
0.37988
0.35986
0.37988
0.375
0.41992
0.39502
0.41016
0.40479
0.44482
0.43994
0.47021
0.46484
0.52979
0.56006
0.60986
0.64502
0.65479
0.6748
0.69482
0.6748
0.68018
0.68506
0.64502
0.6499
0.60498
0.58496
0.5498
0.5249
0.49023
0.48486
0.47998
0.49023
0.50488
0.51514
0.49023
0.52979
0.49512
0.51514
0.49512
0.5
0.45508
0.47998
0.46484
0.49023
0.45996
0.45996
0.46484
0.47021
0.45996
0.45996
0.43994
0.45996
0.46484
0.44482
0.46484
0.43018
0.37012
0.34521
0.64014
1.0098
1.335
1.3496
0.73486
0.41992
0.29004
0.2749
0.31006
0.30029
0.3252
0.33496
0.33008
0.3501
0.3252
0.3501
0.33984
0.36523
0.33984
0.3501
0.37012
0.37012
0.39502
0.40479
0.43994
0.46484
0.54492
0.56982
0.56006
0.56982
0.60498
0.64014
0.62988
0.62012
0.61475
0.62012
0.6001
0.62012
0.56494
0.5498
0.51514
0.52002
0.49023
0.50488
0.49023
0.49023
0.4751
0.47021
0.49023
0.46484
0.47021
0.4502
0.4751
0.49023
0.48486
0.46484
0.47998
0.45996
0.46484
0.4751
0.49023
0.43018
0.4502
0.43994
0.4502
0.45996
0.4502
0.43018
0.41992
0.41992
0.41504
0.41504
0.41992
0.39502
0.38525
0.41992
0.39502
0.41016
0.40479
0.41016
0.3999
0.41504
0.40479
0.36523
0.3501
0.6748
1.0601
1.4097
1.4297
0.82471
0.41504
0.28516
0.28027
0.29492
0.31494
0.33496
0.3501
0.3252
0.3252
0.3252
0.33008
0.34521
0.37012
0.36523
0.39502
0.3501
0.39014
0.39014
0.43018
0.41016
0.44482
0.49023
0.52979
0.5752
0.625
0.6499
0.66016
0.62988
0.66992
0.66016
0.64502
0.65479
0.61475
0.625
0.58008
0.56006
0.54492
0.56006
0.53516
0.51514
0.50977
0.52979
0.51514
0.49512
0.49023
0.49023
0.48486
0.49023
0.45996
0.47021
0.49023
0.47998
0.48486
0.46484
0.47021
0.51514
0.47998
0.45996
0.47998
0.4502
0.47021
0.44482
0.45996
0.43506
0.4248
0.41992
0.41504
0.41016
0.4248
0.39502
0.40479
0.41016
0.4248
0.43994
0.4502
0.45996
0.41992
0.40479
0.4248
0.43506
0.41016
0.43506
0.43018
0.43506
0.39502
0.41992
0.41992
0.43994
0.41016
0.43506
0.43994
0.45508
0.41992
0.43994
0.44482
0.45996
0.43994
0.45996
0.375
0.35986
0.77979
1.1797
1.46
1.1997
0.69482
0.38525
0.27002
0.26514
0.31494
0.33008
0.33496
0.31982
0.3501
0.375
0.375
0.37012
0.39502
0.35498
0.37012
0.35986
0.37012
0.375
0.44482
0.43994
0.4751
0.51514
0.56006
0.54004
0.58008
0.60498
0.65479
0.6748
0.66504
0.6748
0.65479
0.66504
0.63477
0.64014
0.62012
0.5752
0.56006
0.58008
0.56006
0.54492
0.54004
0.54004
0.53516
0.54004
0.50977
0.49512
0.5
0.48486
0.47021
0.46484
0.47021
0.49023
0.48486
0.46484
0.49512
0.46484
0.50488
0.51514
0.47998
0.48486
0.47021
0.46484
0.44482
0.4248
0.4502
0.43506
0.45508
0.39014
0.41992
0.43994
0.4248
0.43506
0.43994
0.43018
0.48486
0.5
0.4502
0.43994
0.43506
0.41504
0.40479
0.43994
0.41016
0.41992
0.43018
0.43994
0.41992
0.43018
0.41992
0.38525
0.45996
0.78516
1.2197
1.4946
1.2646
0.75488
0.37988
0.2749
0.25488
0.3252
0.34521
0.33008
0.31494
0.3501
0.36523
0.37012
0.3252
0.35986
0.37988
0.39502
0.41016
0.3999
0.4502
0.45996
0.43018
0.4502
0.50488
0.51514
0.54004
0.58496
0.6001
0.61475
0.61475
0.60986
0.65479
0.6499
0.6499
0.64014
0.62988
0.60986
0.625
0.59521
0.60498
0.5752
0.5
0.48486
0.47998
0.46484
0.46484
0.47021
0.45996
0.47021
0.45996
0.47021
0.46484
0.49023
0.4751
0.56982
0.66016
0.85498
1.1299
1.4546
1.5
1.5
1.5
1.5
1.5
1.5
1.5
1.5
1.2148
0.68994
0.16992
-0.054688
-0.13477
-0.16504
-0.19971
-0.24463
-0.23486
-0.22998
-0.24463
-0.28467
-0.2749
-0.25977
-0.28467
-0.30469
-0.31982
-0.2998
-0.29004
-0.29492
-0.26465
-0.22998
-0.23975
-0.17969
-0.125
-0.074707
-0.029785
0.044922
0.090332
0.18506
0.22021
0.30029
0.35498
0.41504
0.41016
0.4751
0.47021
0.5249
0.50977
0.54492
0.5498
0.5752
0.52002
0.56006
0.53516
0.56494
0.5498
0.53516
0.55518
0.54492
0.56006
0.56006
0.54492
0.54004
0.5249
0.5
0.52002
0.51514
0.53516
0.5249
0.53516
0.49023
0.49023
0.48486
0.51514
0.48486
0.47998
0.45996
0.4751
0.48486
0.46484
0.50488
0.48486
0.49512
0.4751
0.5
0.49023
0.50488
0.49023
0.5
0.47021
0.4751
0.43994
0.47998
0.47021
0.46484
0.48486
0.49512
0.49023
0.5
0.45996
0.43506
0.51514
0.86475
1.2598
1.5
1.1899
0.68506
0.38525
0.30029
0.29492
0.31982
0.35986
0.36523
0.35498
0.375
0.39502
0.39014
0.40479
0.38525
0.41016
0.4248
0.3999
0.39502
0.43018
0.43506
0.46484
0.48486
0.53516
0.55518
0.5498
0.60986
0.62988
0.6748
0.69482
0.70996
0.69482
0.73486
0.73975
0.73486
0.7002
0.66992
0.62988
0.63477
0.60986
0.62988
0.58496
0.54004
0.52979
0.5498
0.54492
0.58496
0.50488
0.48486
0.5249
0.50488
0.5
0.49512
0.47021
0.46484
0.47998
0.47021
0.49512
0.4502
0.4751
0.46484
0.48486
0.4751
0.49512
0.4751
0.49023
0.45996
0.4502
0.41016
0.39502
0.3999
0.41016
0.3999
0.39502
0.41992
0.43018
0.40479
0.43018
0.45508
0.4248
0.4502
0.44482
0.4502
0.43506
0.41504
0.40479
0.375
0.33008
0.5
0.90967
1.3496
1.4648
0.99512
0.53516
0.33008
0.28027
0.31006
0.31982
0.35986
0.33984
0.33008
0.3252
0.33496
0.33984
0.35986
0.37012
0.35986
0.37012
0.39014
0.39014
0.45508
0.49023
0.44482
0.51514
0.51514
0.5249
0.54004
0.6001
0.625
0.62988
0.62988
0.64502
0.62012
0.62988
0.625
0.62012
0.625
0.58496
0.5752
0.55518
0.5752
0.54004
0.50488
0.48486
0.49023
0.5
0.50488
0.48486
0.47021
0.46484
0.49023
0.47021
0.49023
0.45996
0.4751
0.48486
0.45996
0.45508
0.47021
0.45996
0.48486
0.43994
0.43506
0.45996
0.43506
0.43994
0.45996
0.44482
0.4248
0.44482
0.45508
0.45996
0.41504
0.45508
0.45996
0.41992
0.41992
0.41992
0.39502
0.4248
0.43506
0.43994
0.39502
0.41504
0.41016
0.45508
0.46484
0.43506
0.43018
0.43994
0.44482
0.41016
0.35498
0.33496
0.6748
1.1099
1.4346
1.2646
0.77002
0.4248
0.27002
0.25
0.29492
0.3252
0.36523
0.3501
0.35986
0.38525
0.39502
0.35498
0.39502
0.36523
0.3501
0.35986
0.35498
0.40479
0.3999
0.41992
0.43994
0.47021
0.54004
0.56006
0.58008
0.62012
0.65479
0.6748
0.65479
0.66504
0.64014
0.6748
0.64502
0.625
0.59521
0.58008
0.56494
0.5752
0.52979
0.5249
0.52979
0.53516
0.51514
0.51514
0.49023
0.52002
0.49023
0.4751
0.49023
0.48486
0.50488
0.46484
0.4751
0.49512
0.49023
0.4751
0.45508
0.46484
0.48486
0.46484
0.49512
0.44482
0.43994
0.4248
0.41992
0.43994
0.41504
0.37988
0.39502
0.43018
0.41016
0.41504
0.41016
0.43018
0.44482
0.4502
0.41016
0.41992
0.43994
0.45996
0.41504
0.41992
0.41504
0.37012
0.31006
0.4751
0.85986
1.2749
1.4497
1.0649
0.60498
0.31982
0.24023
0.23486
0.31982
0.33984
0.3501
0.33008
0.31982
0.31006
0.36523
0.34521
0.3252
0.33984
0.35986
0.35498
0.39502
0.3999
0.43506
0.4248
0.49512
0.50977
0.56494
0.58008
0.6001
0.61475
0.60498
0.6499
0.64502
0.65479
0.64014
0.68018
0.61475
0.62012
0.60498
0.61475
0.6001
0.60498
0.53516
0.51514
0.49023
0.47021
0.46484
0.47021
0.4502
0.4502
0.45996
0.47021
0.46484
0.49512
0.46484
0.45996
0.47998
0.47021
0.52979
0.4751
0.47998
0.46484
0.4751
0.43506
0.43994
0.45508
0.41992
0.40479
0.41992
0.40479
0.39502
0.39502
0.41992
0.40479
0.43018
0.43018
0.45508
0.43994
0.43994
0.40479
0.3999
0.39502
0.43506
0.36523
0.41504
0.39502
0.38525
0.41992
0.40479
0.41504
0.40479
0.44482
0.43994
0.46484
0.47998
0.44482
0.4248
0.46484
0.48486
0.45996
0.41504
0.41016
0.44482
0.45996
0.45508
0.46484
0.43506
0.4502
0.45996
0.4751
0.48486
0.4751
0.48486
0.45996
0.47021
0.39502
0.52979
0.89014
1.2847
1.4849
1.125
0.64502
0.34521
0.26025
0.31982
0.35986
0.37988
0.375
0.37012
0.4248
0.39502
0.38525
0.4248
0.38525
0.37012
0.38525
0.39502
0.41504
0.44482
0.43994
0.45996
0.48486
0.50977
0.56982
0.58496
0.61475
0.62988
0.66992
0.6748
0.70996
0.71484
0.69482
0.6748
0.68994
0.66504
0.64502
0.625
0.60498
0.56982
0.56982
0.5498
0.5249
0.53516
0.50977
0.52002
0.51514
0.50488
0.49023
0.50488
0.52002
0.49512
0.5
0.49023
0.46484
0.47998
0.47021
0.47998
0.45996
0.49023
0.45508
0.4502
0.52002
0.6499
0.80469
1.0098
1.3096
1.5
1.5
1.5
1.5
1.5
1.5
1.5
1.5
1.335
0.92969
0.37988
0.064941
-0.069824
-0.12988
-0.18506
-0.19482
-0.18994
-0.20996
-0.23975
-0.21484
-0.24463
-0.23975
-0.27002
-0.25977
-0.27979
-0.31982
-0.35498
-0.35986
-0.32959
-0.31494
-0.2998
-0.2749
-0.22461
-0.19482
-0.10498
-0.034668
0.024902
0.080078
0.13525
0.19531
0.2749
0.35498
0.39502
0.41016
0.47021
0.5
0.51514
0.53516
0.58008
0.56006
0.56494
0.56006
0.58008
0.56494
0.55518
0.5752
0.58984
0.60986
0.6001
0.58496
0.5752
0.56006
0.53516
0.54004
0.53516
0.53516
0.52002
0.53516
0.52002
0.51514
0.50488
0.53516
0.51514
0.53516
0.51514
0.54004
0.50488
0.49512
0.52002
0.50488
0.52002
0.51514
0.48486
0.50488
0.5249
0.48486
0.50977
0.48486
0.5498
0.52002
0.51514
0.5
0.53516
0.50977
0.49512
0.5
0.48486
0.5
0.47021
0.4751
0.48486
0.49512
0.4751
0.46484
0.49023
0.52002
0.5249
0.50488
0.52002
0.52979
0.51514
0.52002
0.49023
0.48486
0.49023
0.5
0.52002
0.49512
0.49512
0.49512
0.49023
0.50488
0.49023
0.4502
0.49023
0.70996
1.1099
1.4697
1.5
0.875
0.4502
0.30029
0.26514
0.29004
0.33008
0.375
0.41504
0.43506
0.39502
0.40479
0.43018
0.40479
0.43994
0.39502
0.3999
0.41016
0.43506
0.43506
0.45996
0.46484
0.50977
0.5249
0.58496
0.60986
0.62988
0.68506
0.7251
0.73486
0.7002
0.74512
0.73486
0.74512
0.71484
0.73975
0.66992
0.66016
0.625
0.63477
0.60986
0.58984
0.59521
0.5752
0.52002
0.50488
0.54004
0.50488
0.50977
0.50488
0.48486
0.47021
0.5
0.48486
0.51514
0.49023
0.48486
0.47998
0.54004
0.48486
0.45508
0.44482
0.48486
0.43506
0.4248
0.41504
0.4751
0.45996
0.44482
0.43506
0.46484
0.43018
0.41992
0.4502
0.4502
0.43506
0.41504
0.4248
0.43018
0.43506
0.41016
0.41504
0.40479
0.43506
0.41504
0.44482
0.44482
0.45996
0.44482
0.37988
0.35498
0.53516
0.94971
1.3599
1.4746
1.0098
0.52979
0.26514
0.21484
0.29492
0.31982
0.34521
0.36523
0.37012
0.36523
0.35498
0.375
0.37012
0.39502
0.37012
0.37012
0.38525
0.3999
0.39502
0.41504
0.45508
0.50488
0.51514
0.53516
0.56494
0.58984
0.61475
0.65479
0.66504
0.68018
0.66504
0.65479
0.6499
0.60986
0.61475
0.62012
0.5498
0.51514
0.54492
0.54492
0.51514
0.52002
0.49512
0.4502
0.48486
0.4751
0.50977
0.48486
0.49023
0.45996
0.47021
0.4751
0.47998
0.49023
0.45996
0.43018
0.4248
0.47021
0.45996
0.46484
0.4248
0.4751
0.46484
0.43506
0.40479
0.43506
0.41992
0.3999
0.4248
0.41016
0.40479
0.39502
0.41992
0.3999
0.39014
0.41992
0.43994
0.41504
0.43018
0.41992
0.43018
0.4248
0.44482
0.45508
0.41504
0.41992
0.41016
0.40479
0.41992
0.4248
0.43994
0.44482
0.41992
0.39502
0.43506
0.43018
0.45508
0.43994
0.4502
0.43994
0.47021
0.46484
0.48486
0.45996
0.43018
0.45508
0.43994
0.4502
0.45996
0.43506
0.47998
0.45508
0.43994
0.45996
0.4248
0.41504
0.70508
1.1196
1.4448
1.4849
0.83496
0.43994
0.25488
0.22998
0.31494
0.31982
0.33008
0.34521
0.35498
0.33008
0.38525
0.3501
0.37012
0.37988
0.39502
0.39502
0.41016
0.4248
0.43018
0.4502
0.43506
0.43018
0.5
0.5249
0.58008
0.60986
0.66504
0.65479
0.7002
0.7002
0.73975
0.70508
0.69482
0.7002
0.66992
0.6499
0.60498
0.60986
0.5752
0.56006
0.52979
0.50977
0.49023
0.49512
0.49023
0.48486
0.49512
0.5249
0.53516
0.47998
0.4751
0.51514
0.49023
0.48486
0.45508
0.4502
0.45996
0.4751
0.4502
0.4502
0.43018
0.45996
0.49023
0.4751
0.4502
0.4502
0.4751
0.43994
0.45508
0.39502
0.40479
0.3999
0.3999
0.41504
0.41992
0.41504
0.41016
0.43018
0.44482
0.41016
0.41992
0.3999
0.37988
0.35986
0.56494
1.0049
1.4146
1.4946
0.95508
0.50488
0.25
0.22021
0.27002
0.30029
0.2749
0.30518
0.31982
0.3252
0.31006
0.3501
0.35986
0.41016
0.35986
0.37012
0.36523
0.39502
0.39502
0.43994
0.46484
0.43994
0.4751
0.5249
0.56006
0.60986
0.62988
0.6499
0.66992
0.6748
0.68994
0.66016
0.66504
0.61475
0.60498
0.5752
0.58496
0.54492
0.50488
0.48486
0.48486
0.5
0.51514
0.49023
0.46484
0.47998
0.47021
0.46484
0.4751
0.46484
0.45996
0.4751
0.45996
0.4751
0.45996
0.47021
0.4751
0.46484
0.46484
0.47021
0.44482
0.48486
0.46484
0.4502
0.4248
0.41992
0.43994
0.46484
0.41504
0.41992
0.44482
0.41992
0.46484
0.4502
0.40479
0.33496
0.37988
0.70508
1.1597
1.4546
1.1548
0.6748
0.35986
0.25
0.28027
0.2749
0.31494
0.29492
0.34521
0.33008
0.36523
0.35986
0.375
0.375
0.41016
0.39502
0.39502
0.39014
0.39502
0.41504
0.39014
0.37988
0.43506
0.47998
0.56494
0.58496
0.60498
0.6499
0.65479
0.65479
0.66016
0.68506
0.64014
0.625
0.58496
0.5752
0.55518
0.52979
0.47998
0.48486
0.46484
0.4502
0.47998
0.46484
0.48486
0.51514
0.53516
0.49023
0.5
0.49023
0.53516
0.48486
0.4751
0.47021
0.48486
0.47021
0.45996
0.4248
0.40479
0.41504
0.41992
0.40479
0.4248
0.41992
0.43506
0.4502
0.45508
0.4248
0.40479
0.43018
0.41992
0.3999
0.39502
0.41504
0.3999
0.41016
0.41992
0.41016
0.38525
0.39502
0.39502
0.39014
0.41016
0.43994
0.43506
0.4502
0.43994
0.45996
0.43994
0.44482
0.4248
0.41992
0.41992
0.43018
0.4248
0.44482
0.41992
0.43506
0.45508
0.44482
0.4248
0.41016
0.39014
0.50488
0.91504
1.2847
1.4399
1.0049
0.55518
0.30518
0.2251
0.26514
0.31982
0.3252
0.35986
0.36523
0.3501
0.36523
0.39502
0.3999
0.37012
0.37012
0.39502
0.41504
0.43994
0.44482
0.4248
0.45996
0.47998
0.5
0.52979
0.5498
0.59521
0.63477
0.62988
0.68018
0.66016
0.65479
0.6748
0.68506
0.66016
0.64014
0.64502
0.6499
0.63477
0.61475
0.60986
0.60498
0.5752
0.50977
0.5
0.47998
0.49023
0.46484
0.48486
0.45508
0.45508
0.44482
0.46484
0.4751
0.5
0.45996
0.4751
0.46484
0.52002
0.49512
0.47021
0.48486
0.49512
0.45508
0.4248
0.41992
0.41992
0.41016
0.3999
0.40479
0.35986
0.38525
0.35986
0.39014
0.38525
0.39502
0.39014
0.41016
0.41992
0.41016
0.38525
0.41016
0.39502
0.40479
0.38525
0.39502
0.39502
0.38525
0.39014
0.43018
0.43994
0.41016
0.43018
0.43506
0.41992
0.41016
0.41504
0.375
0.7002
1.1196
1.4648
1.2349
0.70508
0.3501
0.21484
0.2002
0.29004
0.33008
0.35498
0.33496
0.36523
0.37012
0.37012
0.36523
0.3501
0.36523
0.375
0.39014
0.37988
0.3999
0.43018
0.43506
0.47021
0.4502
0.5
0.54004
0.59521
0.62988
0.62988
0.66992
0.68994
0.70996
0.7002
0.69482
0.65479
0.64014
0.60986
0.58008
0.58496
0.55518
0.52002
0.52002
0.49023
0.47998
0.46484
0.48486
0.49023
0.47021
0.5
0.50488
0.47998
0.4751
0.49023
0.4502
0.48486
0.49023
0.51514
0.49023
0.50977
0.4751
0.45508
0.46484
0.45508
0.41992
0.43018
0.41504
0.4248
0.43506
0.4248
0.44482
0.3999
0.39014
0.41992
0.3999
0.39502
0.43506
0.43994
0.43506
0.43994
0.43506
0.41504
0.43018
0.43994
0.43994
0.4248
0.4751
0.47998
0.41504
0.43018
0.43994
0.41992
0.39502
0.41992
0.70996
1.1196
1.4746
1.5
0.80469
0.40479
0.25488
0.27002
0.31982
0.33496
0.3252
0.33008
0.33984
0.31494
0.33496
0.35986
0.35498
0.39014
0.41504
0.3999
0.41504
0.43506
0.4502
0.44482
0.4751
0.51514
0.53516
0.5249
0.58008
0.60498
0.62012
0.63477
0.65479
0.65479
0.66992
0.66016
0.70508
0.6748
0.61475
0.58496
0.58984
0.5752
0.55518
0.5249
0.51514
0.51514
0.5
0.4502
0.46484
0.4751
0.45508
0.43994
0.49023
0.50977
0.49023
0.48486
0.47998
0.48486
0.49023
0.47021
0.4751
0.47998
0.45996
0.44482
0.43506
0.47021
0.4248
0.40479
0.39502
0.41992
0.43994
0.45508
0.4248
0.41992
0.41992
0.4248
0.41992
0.43506
0.4502
0.43018
0.41016
0.39502
0.38525
0.375
0.43018
0.41504
0.4248
0.43994
0.43994
0.43994
0.45508
0.4248
0.44482
0.45996
0.43994
0.43506
0.43994
0.44482
0.41504
0.40479
0.41992
0.41504
0.43506
0.43994
0.4751
0.45508
0.43994
0.49512
0.46484
0.45508
0.46484
0.4751
0.44482
0.47021
0.49023
0.45508
0.43506
0.47021
0.41504
0.45508
0.49023
0.48486
0.45996
0.46484
0.41992
0.47021
0.73975
1.1499
1.46
1.3047
0.83008
0.41504
0.26514
0.25
0.30518
0.35498
0.37988
0.33496
0.35986
0.375
0.375
0.37012
0.3999
0.39014
0.41504
0.39014
0.40479
0.41016
0.40479
0.47021
0.46484
0.48486
0.52979
0.56006
0.60498
0.625
0.66504
0.7002
0.6748
0.71973
0.73975
0.71484
0.70508
0.7002
0.66992
0.65479
0.6499
0.65479
0.60986
0.56982
0.52002
0.51514
0.50488
0.52002
0.48486
0.4751
0.5249
0.48486
0.52002
0.50977
0.49023
0.48486
0.49512
0.4751
0.51514
0.49512
0.49023
0.47021
0.4751
0.45996
0.49512
0.4248
0.44482
0.45996
0.43994
0.43994
0.47021
0.44482
0.45508
0.4248
0.43506
0.4502
0.41016
0.37988
0.375
0.41504
0.39014
0.4248
0.41992
0.43506
0.43994
0.39502
0.33496
0.47998
0.87012
1.2949
1.4546
1.0298
0.5752
0.28027
0.18994
0.22998
0.30518
0.31982
0.31494
0.33008
0.35986
0.375
0.39014
0.375
0.37988
0.36523
0.35498
0.3999
0.40479
0.35986
0.38525
0.40479
0.45996
0.46484
0.49512
0.54004
0.6001
0.62988
0.68018
0.6748
0.68994
0.6748
0.66992
0.6499
0.6001
0.58984
0.59521
0.56494
0.56006
0.54004
0.51514
0.49023
0.47021
0.47998
0.51514
0.52979
0.48486
0.49512
0.45996
0.50977
0.46484
0.45508
0.43994
0.46484
0.4751
0.50488
0.47021
0.46484
0.4751
0.45508
0.45996
0.43994
0.45508
0.45996
0.44482
0.43018
0.4502
0.41504
0.4248
0.41992
0.41992
0.41992
0.41504
0.4248
0.43994
0.4248
0.45508
0.43506
0.4248
0.4248
0.43506
0.41992
0.45508
0.41016
0.39502
0.4248
0.45508
0.45996
0.40479
0.41992
0.43994
0.4502
0.43506
0.43994
0.41504
0.45508
0.43994
0.44482
0.43506
0.46484
0.44482
0.46484
0.45508
0.4502
0.38525
0.37012
0.6499
1.04
1.395
1.46
0.875
0.46484
0.26514
0.24512
0.3252
0.33984
0.3501
0.37012
0.39014
0.3501
0.39014
0.375
0.38525
0.36523
0.39014
0.39502
0.37988
0.39502
0.41504
0.4248
0.48486
0.50488
0.53516
0.55518
0.56006
0.60986
0.64014
0.65479
0.68018
0.68506
0.6748
0.65479
0.6499
0.66504
0.6499
0.65479
0.625
0.64014
0.6001
0.60498
0.53516
0.5498
0.52002
0.50977
0.49023
0.48486
0.47021
0.47998
0.4502
0.46484
0.47021
0.45996
0.46484
0.45996
0.50977
0.51514
0.47998
0.47021
0.48486
0.47021
0.49023
0.44482
0.43506
0.4502
0.46484
0.43994
0.43018
0.41992
0.43994
0.41992
0.41992
0.41992
0.43506
0.39502
0.4248
0.3999
0.41016
0.4502
0.43994
0.41016
0.43018
0.43994
0.4248
0.43994
0.4248
0.41504
0.39014
0.4248
0.41992
0.41016
0.3999
0.43994
0.43018
0.4502
0.4248
0.43994
0.44482
0.43994
0.4502
0.43506
0.45996
0.4502
0.43506
0.46484
0.45508
0.4502
0.44482
0.43994
0.44482
0.43994
0.49023
0.46484
0.46484
0.4502
0.46484
0.46484
0.4751
0.46484
0.5
0.41504
0.38525
0.54492
0.96973
1.375
1.5
1.0049
0.56494
0.34521
0.2749
0.31494
0.34521
0.36523
0.375
0.35986
0.35498
0.37012
0.36523
0.3501
0.34521
0.36523
0.375
0.39502
0.40479
0.4502
0.47021
0.5
0.51514
0.52002
0.5752
0.6001
0.60986
0.64502
0.6748
0.68994
0.68018
0.66016
0.66992
0.66016
0.64014
0.63477
0.66504
0.625
0.62012
0.625
0.6001
0.5752
0.58008
0.53516
0.55518
0.52002
0.49023
0.47998
0.5
0.47998
0.43994
0.43506
0.45508
0.4502
0.49023
0.48486
0.47021
0.46484
0.50977
0.46484
0.47998
0.49023
0.47021
0.49023
0.46484
0.47021
0.4502
0.46484
0.43506
0.41992
0.39502
0.40479
0.38525
0.37988
0.41016
0.41992
0.4248
0.41016
0.43018
0.41992
0.43506
0.41504
0.44482
0.47021
0.43994
0.41992
0.44482
0.3999
0.45508
0.43018
0.40479
0.4248
0.45996
0.43994
0.44482
0.43994
0.45996
0.46484
0.45996
0.46484
0.47021
0.44482
0.45996
0.4751
0.48486
0.49023
0.45996
0.4502
0.45996
0.46484
0.45996
0.46484
0.4502
0.47021
0.46484
0.50488
0.46484
0.48486
0.49023
0.43018
0.37012
0.45996
0.75977
1.1548
1.4897
1.5
0.8501
0.4502
0.28027
0.27002
0.33496
0.3501
0.38525
0.35498
0.3501
0.38525
0.3999
0.37988
0.40479
0.41016
0.3999
0.39502
0.43994
0.41992
0.45508
0.44482
0.46484
0.4751
0.50977
0.53516
0.52979
0.61475
0.66992
0.68506
0.71484
0.69482
0.71484
0.70508
0.7002
0.7002
0.70508
0.64502
0.60498
0.60986
0.56006
0.56982
0.54004
0.50488
0.48486
0.51514
0.49023
0.49023
0.47021
0.49512
0.5
0.51514
0.50488
0.49512
0.52979
0.46484
0.4751
0.4751
0.4751
0.45996
0.44482
0.43018
0.45508
0.44482
0.45508
0.43506
0.43994
0.41992
0.45508
0.4502
0.46484
0.43994
0.44482
0.39502
0.4248
0.3999
0.43018
0.3999
0.39014
0.40479
0.4248
0.39502
0.43506
0.44482
0.4248
0.43994
0.41504
0.4248
0.43018
0.40479
0.41992
0.43018
0.41504
0.43994
0.41992
0.41016
0.3501
0.40479
0.64502
1.0801
1.4146
1.48
0.86475
0.46484
0.26514
0.23486
0.29492
0.33008
0.36523
0.3501
0.34521
0.33984
0.34521
0.3501
0.36523
0.34521
0.35498
0.37012
0.36523
0.3999
0.43018
0.44482
0.49023
0.50977
0.54004
0.5498
0.61475
0.62988
0.68506
0.70508
0.66992
0.66016
0.66992
0.66016
0.64502
0.63477
0.60498
0.58984
0.58496
0.60986
0.58496
0.56982
0.52979
0.50488
0.47021
0.51514
0.45508
0.44482
0.44482
0.48486
0.46484
0.48486
0.49512
0.45508
0.46484
0.4751
0.49023
0.49512
0.46484
0.4751
0.44482
0.43994
0.44482
0.43994
0.45508
0.40479
0.41016
0.41504
0.43506
0.4248
0.41992
0.39502
0.41504
0.41016
0.43018
0.41992
0.41992
0.41992
0.41016
0.40479
0.41504
0.39502
0.3999
0.39502
0.41016
0.375
0.34521
0.53516
0.93994
1.3848
1.4897
0.96484
0.5249
0.29492
0.24023
0.25488
0.29492
0.33984
0.30029
0.31006
0.33008
0.36523
0.3252
0.34521
0.3501
0.37988
0.38525
0.40479
0.41992
0.44482
0.45996
0.41992
0.45996
0.49512
0.54492
0.5498
0.58984
0.625
0.65479
0.68018
0.70996
0.71973
0.70508
0.66504
0.68506
0.64502
0.62988
0.58496
0.58008
0.5498
0.51514
0.52002
0.47021
0.44482
0.46484
0.4751
0.45508
0.49023
0.46484
0.50488
0.5
0.4751
0.47021
0.49023
0.45996
0.45508
0.45508
0.46484
0.43506
0.4248
0.41992
0.43994
0.4248
0.43506
0.43994
0.4502
0.45508
0.43994
0.4502
0.4248
0.43994
0.43994
0.41016
0.39014
0.39502
0.39502
0.40479
0.33008
0.29492
0.3999
0.78516
1.2148
1.4448
1.0801
0.64502
0.36523
0.29492
0.31006
0.31006
0.30029
0.31982
0.33496
0.31494
0.30518
0.33008
0.36523
0.37012
0.36523
0.375
0.38525
0.37012
0.41504
0.41016
0.45508
0.4502
0.49023
0.50488
0.5498
0.56494
0.60498
0.66992
0.6499
0.65479
0.64014
0.625
0.62012
0.6001
0.61475
0.58984
0.5752
0.56006
0.54492
0.51514
0.50488
0.52979
0.50488
0.51514
0.4751
0.49023
0.47021
0.45508
0.44482
0.44482
0.43994
0.43994
0.43994
0.4751
0.49023
0.45996
0.45508
0.47021
0.46484
0.48486
0.45508
0.43994
0.47998
0.45996
0.43994
0.41992
0.41016
0.39502
0.35986
0.33008
0.58496
0.97998
1.3296
1.3496
0.77002
0.41992
0.29004
0.26514
0.30518
0.28027
0.31982
0.33008
0.31982
0.30029
0.31982
0.34521
0.33984
0.37012
0.34521
0.3501
0.34521
0.37012
0.40479
0.43018
0.43994
0.47021
0.47021
0.52002
0.56006
0.61475
0.62988
0.62988
0.6499
0.66016
0.6499
0.62988
0.62988
0.60986
0.56982
0.56006
0.56982
0.53516
0.54004
0.50977
0.48486
0.47021
0.48486
0.48486
0.47021
0.47998
0.46484
0.44482
0.4502
0.45508
0.49512
0.5
0.47021
0.43994
0.45996
0.46484
0.47021
0.46484
0.49023
0.43994
0.44482
0.44482
0.45996
0.4248
0.41504
0.41992
0.40479
0.41504
0.38525
0.41992
0.3999
0.40479
0.30029
0.28027
0.60986
1.0547
1.3647
1.3696
0.73486
0.43506
0.28027
0.26514
0.28516
0.30029
0.29492
0.31494
0.31982
0.30518
0.35498
0.36523
0.3501
0.3252
0.33496
0.36523
0.37988
0.37012
0.40479
0.45508
0.43018
0.41992
0.4751
0.5249
0.5498
0.54492
0.62012
0.62988
0.6499
0.65479
0.66504
0.6499
0.62988
0.625
0.6001
0.625
0.56982
0.54492
0.54492
0.51514
0.48486
0.47021
0.49023
0.47021
0.45996
0.4751
0.46484
0.47998
0.46484
0.50977
0.46484
0.49023
0.4751
0.47021
0.4751
0.45996
0.49023
0.45996
0.4502
0.45996
0.47998
0.47021
0.4502
0.41992
0.39502
0.41992
0.43018
0.41992
0.43994
0.41016
0.41992
0.3999
0.30518
0.3999
0.83008
1.2397
1.4248
0.96484
0.5752
0.31494
0.28516
0.28027
0.31494
0.3252
0.3252
0.31006
0.33496
0.33496
0.33008
0.3501
0.33008
0.37012
0.35498
0.40479
0.39014
0.41504
0.40479
0.39502
0.43018
0.47021
0.47998
0.55518
0.5752
0.58984
0.60498
0.63477
0.64014
0.625
0.63477
0.61475
0.60498
0.60986
0.56982
0.5498
0.56006
0.54492
0.50977
0.49512
0.50488
0.47021
0.48486
0.47998
0.52002
0.5249
0.50977
0.50977
0.50488
0.50977
0.50488
0.49023
0.51514
0.49023
0.5
0.47998
0.50977
0.51514
0.4751
0.45508
0.49512
0.46484
0.47021
0.45996
0.44482
0.45996
0.43994
0.44482
0.45508
0.46484
0.43994
0.45508
0.4502
0.43994
0.41992
0.41504
0.43018
0.43994
0.43018
0.43994
0.4248
0.4248
0.43018
0.4248
0.45996
0.44482
0.4502
0.41016
0.35498
0.43994
0.75
1.125
1.4346
1.2349
0.79004
0.4248
0.28027
0.26025
0.33008
0.3252
0.3501
0.35498
0.33008
0.34521
0.38525
0.41016
0.33008
0.34521
0.39502
0.36523
0.36523
0.375
0.41016
0.43506
0.43018
0.46484
0.50488
0.54004
0.56006
0.625
0.62988
0.6499
0.63477
0.65479
0.66992
0.62988
0.60986
0.62988
0.58496
0.60498
0.58008
0.54492
0.50977
0.54004
0.54492
0.50488
0.49512
0.49512
0.49023
0.5
0.50977
0.46484
0.46484
0.4751
0.48486
0.46484
0.48486
0.4502
0.47021
0.4751
0.43994
0.46484
0.4502
0.44482
0.45996
0.4502
0.47021
0.4751
0.43994
0.43994
0.41992
0.39502
0.41504
0.4248
0.37012
0.29004
0.2749
0.6499
1.0601
1.4048
1.1899
0.73486
0.39502
0.28027
0.25488
0.31494
0.3252
0.31006
0.31982
0.30029
0.30518
0.35986
0.31006
0.33496
0.3252
0.31982
0.3501
0.37012
0.37988
0.38525
0.37988
0.45508
0.49023
0.56006
0.56982
0.56006
0.60498
0.60986
0.62988
0.61475
0.62988
0.60498
0.59521
0.58008
0.58496
0.58984
0.5498
0.50488
0.52979
0.52002
0.50977
0.5
0.51514
0.49023
0.5
0.48486
0.47021
0.48486
0.45996
0.4502
0.4751
0.48486
0.4502
0.47021
0.45996
0.48486
0.45996
0.45508
0.45508
0.49023
0.43994
0.43994
0.43506
0.41992
0.40479
0.41016
0.41992
0.3999
0.40479
0.39502
0.41992
0.41016
0.4248
0.43506
0.43994
0.41992
0.43994
0.4502
0.39502
0.39502
0.41992
0.40479
0.41992
0.39502
0.41016
0.41016
0.43506
0.44482
0.44482
0.40479
0.36523
0.41504
0.75
1.1597
1.4448
1.2148
0.71484
0.39502
0.24023
0.2749
0.29492
0.31982
0.3501
0.31982
0.33496
0.35986
0.375
0.39014
0.3501
0.375
0.38525
0.37012
0.38525
0.41016
0.40479
0.45996
0.46484
0.49512
0.5249
0.56982
0.6001
0.64014
0.65479
0.6499
0.68506
0.68018
0.70996
0.66016
0.6748
0.66992
0.62988
0.63477
0.59521
0.5752
0.55518
0.5249
0.52002
0.52979
0.52002
0.5249
0.51514
0.52002
0.49023
0.51514
0.47021
0.45508
0.4751
0.51514
0.47998
0.47021
0.46484
0.5
0.51514
0.52002
0.47021
0.4751
0.45996
0.4751
0.45996
0.47998
0.41504
0.43506
0.41016
0.39502
0.3999
0.43506
0.43994
0.4248
0.43018
0.44482
0.45996
0.44482
0.45996
0.45508
0.45996
0.41016
0.39014
0.3999
0.43506
0.43018
0.41016
0.39502
0.43506
0.41992
0.47021
0.4751
0.43994
0.44482
0.47998
0.45508
0.49023
0.45996
0.44482
0.43994
0.45996
0.43506
0.46484
0.4751
0.43994
0.43018
0.45508
0.46484
0.4502
0.5
0.50977
0.46484
0.47021
0.48486
0.49023
0.47998
0.46484
0.4248
0.37988
0.46484
0.81006
1.21
1.4648
1.2148
0.74512
0.40479
0.27002
0.26025
0.33984
0.33496
0.37012
0.35498
0.35986
0.3501
0.39502
0.37012
0.36523
0.375
0.39502
0.41992
0.44482
0.3999
0.43994
0.4502
0.47998
0.5249
0.53516
0.56006
0.6001
0.62988
0.64014
0.63477
0.66016
0.68506
0.6499
0.62988
0.66992
0.65479
0.61475
0.61475
0.62988
0.59521
0.55518
0.56006
0.53516
0.50977
0.49023
0.50488
0.5
0.5
0.48486
0.5
0.5
0.51514
0.49023
0.4751
0.5
0.49023
0.4751
0.49023
0.47998
0.49512
0.46484
0.45508
0.47021
0.43018
0.43994
0.43506
0.44482
0.43506
0.4502
0.4248
0.43018
0.40479
0.40479
0.43506
0.43994
0.375
0.37012
0.41016
0.3999
0.43018
0.39502
0.41504
0.41992
0.41992
0.43506
0.44482
0.43994
0.45996
0.43018
0.43994
0.43506
0.43994
0.41504
0.41016
0.41992
0.43506
0.41992
0.43506
0.41016
0.43018
0.43506
0.45508
0.48486
0.43994
0.43994
0.47021
0.4751
0.45996
0.4502
0.43018
0.4248
0.43018
0.45508
0.45996
0.47021
0.46484
0.45996
0.4751
0.46484
0.45996
0.49512
0.4751
0.4502
0.3999
0.44482
0.71973
1.1299
1.4546
1.4697
0.7749
0.3999
0.28516
0.25488
0.31494
0.3501
0.36523
0.375
0.37012
0.38525
0.375
0.37012
0.375
0.35986
0.37988
0.39014
0.39502
0.4502
0.4248
0.41992
0.5
0.51514
0.54492
0.58008
0.61475
0.64502
0.66016
0.6748
0.69482
0.7002
0.68994
0.70996
0.68018
0.6499
0.62988
0.65479
0.64014
0.62988
0.60986
0.62988
0.56982
0.54492
0.53516
0.50488
0.47021
0.4751
0.46484
0.45996
0.47021
0.46484
0.45996
0.49512
0.49023
0.5
0.52002
0.5249
0.50488
0.52002
0.53516
0.48486
0.45508
0.41992
0.43506
0.41992
0.4502
0.41992
0.43018
0.4248
0.4502
0.43506
0.4502
0.43018
0.43506
0.45996
0.47021
0.43506
0.43018
0.41016
0.3999
0.41992
0.39014
0.39502
0.39502
0.37988
0.39014
0.4248
0.43506
0.43018
0.43994
0.44482
0.4502
0.48486
0.46484
0.45996
0.44482
0.43506
0.45508
0.44482
0.43994
0.43994
0.41992
0.45508
0.43506
0.4502
0.43994
0.4502
0.45508
0.4502
0.49512
0.47021
0.49023
0.45508
0.47021
0.47998
0.49023
0.45996
