0.51957
0.52544
0.51957
0.52544
0.53033
0.52544
0.53523
0.54012
0.53033
0.52544
0.55969
0.6047
0.63014
0.63014
0.67025
0.68004
0.72016
0.7456
0.72016
0.66536
0.5998
0.54501
0.51957
0.51468
0.51957
0.51468
0.52544
0.51957
0.5499
0.55969
0.61546
0.77006
0.72505
0.63992
0.55479
0.56458
0.5
0.47456
0.45988
0.45499
0.46477
0.4501
0.47456
0.47456
0.46967
0.46967
0.45988
0.45499
0.46477
0.45988
0.45499
0.44521
0.4501
0.44031
0.4501
0.44521
0.46477
0.46967
0.46477
0.49511
0.51468
0.50978
0.51468
0.53523
0.51957
0.50978
0.51957
0.53523
0.55969
0.56458
0.57045
0.56458
0.57534
0.58513
0.58513
0.59491
0.5998
0.5998
0.61057
0.61546
0.61057
0.61057
0.61057
0.63014
0.62524
0.64481
0.68493
0.70059
0.70059
0.72016
0.7456
0.77495
0.7955
0.76517
0.71037
0.63503
0.57534
0.53523
0.50489
0.50489
0.51957
0.57534
0.65558
0.75049
0.81507
0.88552
1.001
1.001
1.001
0.96086
0.94031
0.80528
0.69472
0.63503
0.59002
0.56458
0.53523
0.52544
0.51468
0.49511
0.49022
0.49022
0.47456
0.46967
0.45499
0.44521
0.42955
0.44031
0.43542
0.45499
0.45988
0.46477
0.48532
0.50978
0.51468
0.53523
0.5499
0.55969
0.57534
0.58513
0.59491
0.61057
0.61546
0.61057
0.61546
0.62035
0.62524
0.63014
0.63503
0.62035
0.63014
0.62524
0.62524
0.62524
0.62035
0.62524
0.63014
0.62524
0.63014
0.63503
0.6047
0.62035
0.67025
0.70059
0.68004
0.67515
0.71526
0.7456
0.79061
0.76027
0.68982
0.62524
0.58023
0.52544
0.50489
0.49511
0.49511
0.49022
0.48043
0.49022
0.51468
0.56458
0.71037
0.71526
0.61546
0.51957
0.5
0.45499
0.42955
0.44521
0.4501
0.45499
0.45988
0.46477
0.46477
0.46477
0.46967
0.48043
0.48043
0.48532
0.48043
0.47456
0.48532
0.48043
0.48043
0.48043
0.47456
0.49022
0.50489
0.51468
0.52544
0.53523
0.54501
0.55969
0.57045
0.58023
0.59002
0.5998
0.61057
0.62035
0.63503
0.63014
0.63992
0.64481
0.65558
0.66047
0.66536
0.67025
0.67025
0.68004
0.67515
0.67025
0.67515
0.67025
0.67515
0.68004
0.68004
0.68982
0.72505
0.75049
0.7456
0.76517
0.77495
0.77006
0.82485
0.80528
0.75049
0.68493
0.63503
0.59491
0.56458
0.55479
0.54501
0.54501
0.54012
0.55479
0.57534
0.55969
0.73483
0.77006
0.68982
0.5998
0.58513
0.59002
0.48532
0.47456
0.47456
0.46477
0.46477
0.46477
0.46967
0.47456
0.46967
0.47456
0.47456
0.47456
0.46967
0.47456
0.46477
0.46967
0.46477
0.48043
0.46967
0.48532
0.49022
0.49511
0.50978
0.51468
0.51957
0.53523
0.54501
0.55479
0.56458
0.55969
0.57534
0.57534
0.58513
0.58513
0.59002
0.5998
0.61057
0.6047
0.62524
0.61057
0.62524
0.63014
0.62035
0.6047
0.5998
0.6047
0.6047
0.58513
0.59491
0.62524
0.63503
0.63992
0.66536
0.68004
0.69472
0.7456
0.75049
0.68004
0.61546
0.57534
0.52544
0.49511
0.48043
0.48532
0.49022
0.48532
0.50489
0.52544
0.50978
0.66536
0.7407
0.69472
0.6047
0.50978
0.51957
0.44521
0.45988
0.46477
0.44521
0.46477
0.4501
0.45499
0.46477
0.4501
0.44521
0.45499
0.45499
0.46477
0.45988
0.45499
0.4501
0.45988
0.45988
0.48532
0.47456
0.48532
0.48043
0.51468
0.52544
0.50489
0.52544
0.51957
0.52544
0.53033
0.52544
0.53033
0.53523
0.5499
0.5499
0.5499
0.55969
0.56458
0.57534
0.58513
0.59002
0.59491
0.59491
0.6047
0.6047
0.6047
0.5998
0.6047
0.61057
0.61057
0.62035
0.67025
0.68004
0.68982
0.71526
0.72994
0.77006
0.7955
0.76027
0.70059
0.64481
0.6047
0.58023
0.57045
0.55969
0.57045
0.57534
0.57534
0.61546
0.63014
0.70059
0.83562
0.81507
0.73483
0.66047
0.68004
0.58513
0.55969
0.55479
0.54501
0.53523
0.54501
0.55969
0.5499
0.5499
0.54501
0.54501
0.54501
0.55479
0.55969
0.5499
0.54501
0.5499
0.55969
0.5499
0.55479
0.55479
0.56458
0.57045
0.57534
0.58513
0.59002
0.6047
0.5998
0.61057
0.62524
0.63503
0.63503
0.63503
0.64481
0.63992
0.63992
0.64481
0.64971
0.66047
0.64481
0.65558
0.63992
0.65558
0.64971
0.64481
0.63992
0.64481
0.63503
0.64481
0.63992
0.67515
0.70548
0.71037
0.72505
0.75049
0.77495
0.81507
0.80039
0.75538
0.68982
0.63503
0.5998
0.57534
0.55969
0.55479
0.55969
0.55479
0.57534
0.58513
0.58023
0.75049
0.78571
0.71526
0.63014
0.62035
0.63503
0.50489
0.50489
0.5
0.49511
0.49022
0.49022
0.49511
0.49022
0.49511
0.49022
0.49511
0.5
0.5
0.49511
0.5
0.49511
0.49511
0.49511
0.5
0.5
0.51468
0.51957
0.53033
0.54012
0.5499
0.55969
0.56458
0.58023
0.58513
0.58513
0.59002
0.59491
0.5998
0.61057
0.61057
0.61546
0.61546
0.61546
0.61057
0.61057
0.61057
0.61057
0.5998
0.6047
0.61057
0.6047
0.5998
0.6047
0.6047
0.64481
0.67515
0.68004
0.69472
0.72016
0.7456
0.77006
0.77495
0.71037
0.64481
0.59002
0.55479
0.53523
0.53523
0.53523
0.53033
0.51957
0.54501
0.56458
0.55479
0.68493
0.75538
0.68982
0.5998
0.55969
0.58513
0.48532
0.48532
0.48043
0.47456
0.48043
0.49022
0.49511
0.49022
0.5
0.50978
0.49511
0.51468
0.51468
0.51468
0.51468
0.50489
0.51468
0.50978
0.49511
0.50978
0.53523
0.53033
0.51957
0.53033
0.54501
0.52544
0.54012
0.53033
0.53523
0.54012
0.54012
0.5499
0.55479
0.55969
0.55969
0.55969
0.55479
0.55969
0.55969
0.59002
0.59002
0.58513
0.58513
0.58023
0.58513
0.59002
0.58513
0.59491
0.62524
0.64971
0.65558
0.67025
0.70059
0.72016
0.76027
0.76027
0.71526
0.64971
0.59491
0.55479
0.53033
0.51957
0.51468
0.51468
0.53033
0.53523
0.57045
0.55479
0.70548
0.78571
0.7456
0.66047
0.59002
0.5998
0.51468
0.51468
0.51957
0.51468
0.50978
0.51957
0.51468
0.52544
0.53523
0.53523
0.54012
0.54012
0.54012
0.54501
0.5499
0.55479
0.5499
0.55969
0.56458
0.57534
0.57534
0.58513
0.58513
0.6047
0.5998
0.61057
0.61546
0.62524
0.63014
0.62524
0.64481
0.63503
0.64971
0.63992
0.65558
0.65558
0.66047
0.65558
0.66047
0.66047
0.65558
0.64971
0.65558
0.64971
0.63992
0.64481
0.64971
0.64481
0.64481
0.64481
0.64971
0.68493
0.71037
0.72016
0.72994
0.75538
0.77984
0.81507
0.80528
0.75538
0.68982
0.63503
0.5998
0.58023
0.55969
0.55969
0.55969
0.55969
0.58023
0.5998
0.59002
0.77006
0.7955
0.7407
0.64481
0.63014
0.64481
0.51468
0.49511
0.49022
0.48043
0.48532
0.49022
0.49022
0.49022
0.49511
0.5
0.50489
0.50489
0.5
0.5
0.5
0.5
0.50978
0.50489
0.5
0.51468
0.50489
0.51957
0.53033
0.53523
0.54501
0.55969
0.57534
0.58513
0.58513
0.5998
0.61057
0.61057
0.61057
0.61057
0.62524
0.62035
0.63014
0.62524
0.63014
0.63014
0.63992
0.63503
0.63014
0.63503
0.64481
0.63992
0.63014
0.63503
0.63992
0.66047
0.70548
0.71526
0.72505
0.75049
0.75538
0.80528
0.81507
0.76517
0.71037
0.64971
0.5998
0.58023
0.56458
0.55969
0.54501
0.55969
0.56458
0.59491
0.58513
0.68493
0.79061
0.75538
0.67025
0.63014
0.64481
0.53523
0.50978
0.51468
0.50489
0.50978
0.50978
0.50489
0.49022
0.49511
0.49022
0.49511
0.5
0.49022
0.50489
0.49511
0.49511
0.49511
0.5
0.49022
0.49511
0.5
0.51468
0.52544
0.53033
0.53523
0.53523
0.53523
0.54501
0.55479
0.55479
0.55969
0.57045
0.58023
0.58023
0.57045
0.58513
0.59491
0.59491
0.59491
0.59491
0.6047
0.59491
0.59002
0.58513
0.59002
0.56458
0.58513
0.59002
0.58513
0.61546
0.64481
0.63014
0.66047
0.68004
0.72016
0.75049
0.72016
0.68004
0.62035
0.55479
0.54012
0.51468
0.51468
0.51468
0.51957
0.51957
0.53033
0.54501
0.53523
0.7456
0.78571
0.71526
0.5998
0.53033
0.5
0.49022
0.5
0.49022
0.48532
0.46477
0.48532
0.49022
0.46967
0.48532
0.5
0.47456
0.49511
0.48532
0.49022
0.48532
0.49022
0.49022
0.5
0.49022
0.50978
0.51957
0.52544
0.51957
0.54501
0.55479
0.55969
0.5499
0.55969
0.55479
0.57045
0.57045
0.58023
0.58513
0.59002
0.59491
0.61057
0.61057
0.62035
0.62035
0.62524
0.63014
0.62524
0.63503
0.63014
0.63014
0.63014
0.63014
0.63014
0.63503
0.63014
0.66536
0.70059
0.69472
0.70059
0.72505
0.7456
0.79061
0.7955
0.7456
0.68493
0.63014
0.6047
0.57534
0.57534
0.57045
0.57534
0.57534
0.6047
0.62035
0.61546
0.79061
0.84051
0.78571
0.68982
0.67025
0.68493
0.5499
0.54501
0.53523
0.53523
0.53033
0.53523
0.53033
0.53523
0.53523
0.53523
0.53523
0.53523
0.53523
0.52544
0.53033
0.51957
0.52544
0.52544
0.53523
0.53033
0.54501
0.5499
0.55969
0.57045
0.58513
0.59002
0.59491
0.6047
0.61546
0.61546
0.62524
0.63014
0.62524
0.63014
0.63014
0.63503
0.63014
0.63503
0.63992
0.63992
0.63014
0.63503
0.63014
0.63014
0.63014
0.63014
0.63014
0.63014
0.63014
0.65558
0.69472
0.70059
0.70059
0.73483
0.7456
0.79061
0.80039
0.77006
0.70548
0.64971
0.6047
0.57534
0.55479
0.54501
0.5499
0.54012
0.54501
0.58513
0.58513
0.68004
0.79061
0.75538
0.67515
0.62524
0.63992
0.52544
0.50978
0.5
0.49511
0.49022
0.49511
0.49511
0.5
0.5
0.50489
0.50489
0.50489
0.50489
0.5
0.50489
0.5
0.49511
0.5
0.50489
0.5
0.51468
0.51468
0.53033
0.54012
0.55479
0.55969
0.57045
0.57534
0.58023
0.58513
0.58513
0.59491
0.5998
0.5998
0.61057
0.61057
0.61057
0.61546
0.61546
0.62035
0.61057
0.61057
0.61057
0.61057
0.6047
0.6047
0.5998
0.61057
0.61057
0.63014
0.67025
0.68493
0.68004
0.71526
0.72505
0.76517
0.77495
0.73483
0.67025
0.62035
0.58023
0.5499
0.54012
0.53523
0.54501
0.54501
0.54012
0.57045
0.58023
0.65558
0.79061
0.7407
0.64481
0.57534
0.5998
0.51957
0.50978
0.49511
0.49022
0.49022
0.49022
0.49022
0.48532
0.48532
0.49022
0.49511
0.47456
0.49022
0.47456
0.49022
0.48043
0.47456
0.46967
0.49511
0.47456
0.49022
0.49511
0.49022
0.51468
0.51957
0.52544
0.53523
0.54501
0.5499
0.54501
0.55969
0.54501
0.57045
0.58023
0.57045
0.57534
0.58023
0.57045
0.57045
0.58513
0.57534
0.59491
0.57534
0.55969
0.57534
0.57534
0.58513
0.58023
0.58513
0.61057
0.61546
0.6047
0.63503
0.64971
0.67515
0.70548
0.71037
0.63503
0.55969
0.50978
0.49022
0.48532
0.49511
0.46967
0.48532
0.49022
0.51957
0.50978
0.58023
0.75049
0.72994
0.64971
0.54501
0.51468
0.48043
0.4501
0.46477
0.4501
0.46477
0.46477
0.46477
0.46967
0.46477
0.47456
0.48043
0.48532
0.48532
0.48043
0.49022
0.49511
0.49511
0.5
0.50489
0.51468
0.51957
0.53523
0.54501
0.55969
0.55969
0.57534
0.57045
0.57534
0.57534
0.58023
0.58023
0.58513
0.58513
0.59491
0.5998
0.6047
0.61057
0.62035
0.62035
0.62524
0.62035
0.62524
0.62035
0.62524
0.63014
0.63503
0.63992
0.63503
0.64971
0.64971
0.65558
0.67025
0.71526
0.72505
0.72994
0.76027
0.78571
0.81996
0.8454
0.81018
0.75049
0.68493
0.64971
0.61057
0.5998
0.59002
0.59002
0.58513
0.59491
0.63014
0.62524
0.73483
0.83562
0.80528
0.72016
0.66047
0.67025
0.56458
0.54501
0.53523
0.53033
0.53033
0.51957
0.52544
0.51957
0.53523
0.53033
0.52544
0.53033
0.53523
0.53033
0.52544
0.53033
0.52544
0.51957
0.52544
0.53523
0.53523
0.53523
0.54501
0.55969
0.56458
0.58023
0.58513
0.58513
0.59491
0.6047
0.5998
0.61057
0.61057
0.61546
0.61546
0.62035
0.62524
0.63014
0.63503
0.63014
0.63992
0.63014
0.63992
0.63014
0.63503
0.63503
0.63992
0.63014
0.63503
0.66536
0.70059
0.70548
0.72016
0.7407
0.75538
0.79061
0.80528
0.75538
0.70059
0.63014
0.59491
0.56458
0.5499
0.54501
0.54012
0.54501
0.55479
0.58513
0.57045
0.70548
0.77984
0.7407
0.64971
0.61057
0.63014
0.50978
0.5
0.49022
0.48532
0.49022
0.48532
0.49022
0.49511
0.49511
0.5
0.49511
0.49022
0.48532
0.49022
0.48532
0.49022
0.48532
0.49022
0.48532
0.49022
0.49511
0.50978
0.50978
0.52544
0.53523
0.54501
0.55479
0.56458
0.57045
0.58513
0.58023
0.58513
0.59002
0.5998
0.61057
0.6047
0.61057
0.62035
0.62524
0.62035
0.62524
0.62524
0.63014
0.62524
0.63014
0.62524
0.62035
0.62524
0.65558
0.69472
0.70059
0.70548
0.7456
0.76027
0.80039
0.81507
0.76027
0.70548
0.64481
0.5998
0.55969
0.55969
0.55969
0.55969
0.55479
0.57534
0.59002
0.58023
0.68982
0.79061
0.7407
0.64481
0.58023
0.5998
0.5
0.50978
0.5
0.49511
0.49022
0.49022
0.49022
0.49511
0.48532
0.49022
0.5
0.50489
0.51468
0.5
0.49511
0.49022
0.5
0.50978
0.50978
0.50489
0.51468
0.52544
0.53033
0.53523
0.54012
0.54501
0.55969
0.55969
0.55969
0.55479
0.54501
0.55969
0.56458
0.58023
0.58023
0.58023
0.58513
0.57534
0.58513
0.58513
0.58513
0.59002
0.58023
0.58023
0.57045
0.59002
0.58023
0.6047
0.62524
0.63014
0.64971
0.68004
0.68982
0.7456
0.75049
0.71526
0.67025
0.61057
0.5499
0.53523
0.51468
0.49511
0.50978
0.50489
0.51957
0.53523
0.5499
0.53523
0.76517
0.77006
0.66536
0.57045
0.54012
0.49022
0.46967
0.49022
0.48532
0.47456
0.48043
0.49022
0.49511
0.48532
0.48043
0.49511
0.5
0.49022
0.49022
0.5
0.49511
0.50489
0.50978
0.51468
0.50978
0.51957
0.53523
0.54501
0.54012
0.55969
0.55479
0.56458
0.55969
0.57045
0.56458
0.57534
0.58023
0.58023
0.58513
0.59002
0.59002
0.61057
0.61057
0.61546
0.61546
0.62524
0.63014
0.63503
0.63992
0.62524
0.63992
0.63503
0.63503
0.63992
0.64971
0.68493
0.71526
0.72505
0.7456
0.76027
0.79061
0.82485
0.83072
0.77495
0.71526
0.66047
0.62035
0.59002
0.58513
0.58513
0.58023
0.58513
0.61057
0.62035
0.61057
0.79061
0.81996
0.77495
0.68493
0.66536
0.61546
0.5499
0.54501
0.54012
0.53523
0.53523
0.53033
0.53523
0.53523
0.53033
0.52544
0.53523
0.54012
0.53523
0.53033
0.52544
0.53033
0.51957
0.51468
0.52544
0.53033
0.53033
0.53523
0.55479
0.55969
0.57045
0.58513
0.58023
0.59002
0.6047
0.61057
0.61057
0.61057
0.61057
0.62524
0.63014
0.62524
0.63503
0.63014
0.63992
0.63992
0.64481
0.63992
0.64481
0.63992
0.64481
0.63503
0.64971
0.66047
0.69472
0.71526
0.72016
0.7456
0.77006
0.77984
0.81018
0.80528
0.75049
0.68004
0.63503
0.5998
0.58023
0.55969
0.55479
0.55479
0.55969
0.59491
0.58023
0.57534
0.77495
0.79061
0.72994
0.65558
0.66047
0.59002
0.52544
0.52544
0.52544
0.53033
0.51468
0.53033
0.51468
0.50978
0.53033
0.53523
0.51468
0.52544
0.53523
0.53033
0.51468
0.51468
0.50489
0.51468
0.51957
0.53033
0.52544
0.53033
0.53523
0.53523
0.53523
0.55479
0.57045
0.57045
0.58023
0.58023
0.59491
0.58513
0.59002
0.59491
0.5998
0.6047
0.5998
0.59491
0.61057
0.59491
0.58513
0.58023
0.58513
0.57045
0.57534
0.55969
0.56458
0.5998
0.62524
0.62524
0.63992
0.66047
0.68493
0.71526
0.70059
0.66536
0.61057
0.55479
0.51957
0.51468
0.48043
0.48532
0.47456
0.49022
0.5
0.52544
0.51468
0.68982
0.72994
0.66536
0.57045
0.51468
0.48043
0.45499
0.46477
0.46477
0.46967
0.45988
0.45499
0.47456
0.49022
0.46967
0.48532
0.47456
0.49022
0.49022
0.50489
0.46967
0.49511
0.48532
0.5
0.48532
0.51957
0.51468
0.54012
0.54501
0.5499
0.55479
0.57045
0.55969
0.56458
0.58023
0.58513
0.58023
0.58513
0.59491
0.58513
0.5998
0.61057
0.61546
0.61057
0.62035
0.62524
0.63014
0.63014
0.63014
0.63014
0.63503
0.63992
0.64481
0.64481
0.68982
0.71037
0.71037
0.72994
0.75538
0.76517
0.81507
0.81996
0.75538
0.68982
0.63014
0.59002
0.57045
0.55969
0.56458
0.57045
0.55479
0.59002
0.6047
0.59491
0.77495
0.80039
0.75049
0.66047
0.63992
0.59491
0.54012
0.54501
0.53523
0.53033
0.53523
0.53523
0.53523
0.53033
0.53523
0.53033
0.54012
0.53523
0.53523
0.53523
0.53523
0.53523
0.54012
0.53523
0.54501
0.54501
0.55479
0.55969
0.56458
0.57534
0.58513
0.59002
0.59002
0.59491
0.61057
0.62035
0.62524
0.62524
0.63992
0.63014
0.63992
0.64971
0.64971
0.65558
0.65558
0.65558
0.64971
0.65558
0.65558
0.65558
0.64481
0.64481
0.63992
0.68004
0.70548
0.71037
0.72505
0.75049
0.76517
0.81507
0.81996
0.76517
0.70059
0.63992
0.5998
0.58023
0.56458
0.55969
0.56458
0.56458
0.59002
0.5998
0.58513
0.7456
0.80039
0.7407
0.66047
0.63503
0.64971
0.52544
0.51957
0.49511
0.50978
0.5
0.50489
0.5
0.50978
0.51468
0.50978
0.51468
0.50978
0.50489
0.49511
0.50489
0.5
0.50489
0.5
0.49511
0.50489
0.51468
0.51957
0.53523
0.54012
0.55969
0.55479
0.56458
0.57534
0.58513
0.58513
0.59491
0.59491
0.5998
0.5998
0.5998
0.61057
0.61057
0.61546
0.61057
0.62524
0.61057
0.61546
0.61057
0.61057
0.5998
0.62035
0.61546
0.67025
0.68004
0.68982
0.70059
0.72016
0.76027
0.78571
0.76517
0.71037
0.63014
0.6047
0.58023
0.56458
0.55479
0.5499
0.55969
0.54012
0.58513
0.59491
0.66047
0.7955
0.77006
0.68493
0.61546
0.62524
0.51957
0.50489
0.51468
0.51957
0.49511
0.49022
0.48532
0.49022
0.49511
0.49022
0.49022
0.49511
0.48043
0.48532
0.47456
0.47456
0.46967
0.47456
0.46477
0.48043
0.46967
0.48043
0.49511
0.5
0.50489
0.51468
0.52544
0.52544
0.53033
0.54501
0.55969
0.55479
0.54501
0.56458
0.55969
0.55969
0.56458
0.55969
0.58513
0.57534
0.57534
0.55969
0.56458
0.55969
0.55969
0.57045
0.59002
0.61057
0.62035
0.64971
0.66047
0.65558
0.73483
0.72016
0.70059
0.63992
0.57534
0.53033
0.51468
0.51468
0.50978
0.51468
0.50978
0.51957
0.5499
0.54501
0.70059
0.77006
0.72994
0.63992
0.55969
0.56458
0.48043
0.50489
0.5
0.50489
0.49511
0.50978
0.51468
0.50978
0.51468
0.51957
0.51957
0.51468
0.53033
0.52544
0.51957
0.51957
0.52544
0.51957
0.53523
0.53523
0.54012
0.54012
0.55969
0.55969
0.57045
0.57534
0.58513
0.58513
0.59491
0.59002
0.61057
0.61057
0.61546
0.61057
0.62524
0.63014
0.63014
0.64481
0.63992
0.64971
0.65558
0.63992
0.63503
0.64481
0.63992
0.64481
0.63992
0.64481
0.67025
0.70059
0.70548
0.72994
0.75538
0.76517
0.80528
0.81996
0.77984
0.72994
0.65558
0.62035
0.59491
0.57534
0.57045
0.56458
0.55969
0.58023
0.61057
0.6047
0.72994
0.81507
0.77984
0.68982
0.63992
0.64971
0.53033
0.51957
0.52544
0.50978
0.50978
0.50978
0.51468
0.50489
0.51468
0.50978
0.50978
0.5
0.50978
0.50489
0.50489
0.50489
0.50978
0.50978
0.51468
0.51468
0.51468
0.53033
0.52544
0.55969
0.55479
0.58023
0.57045
0.59002
0.58513
0.61057
0.61057
0.62524
0.61546
0.63014
0.62524
0.63992
0.63503
0.64971
0.63992
0.64971
0.65558
0.64971
0.64481
0.65558
0.64481
0.63992
0.66536
0.70548
0.72016
0.71526
0.75538
0.76517
0.81507
0.82485
0.80039
0.72994
0.67025
0.62524
0.5998
0.57045
0.55479
0.5499
0.56458
0.58023
0.6047
0.59002
0.69472
0.80039
0.77984
0.68982
0.62524
0.63503
0.51957
0.51468
0.5
0.49022
0.49022
0.49022
0.49511
0.5
0.49022
0.5
0.49511
0.49022
0.49022
0.49511
0.47456
0.48043
0.49022
0.49511
0.49022
0.49511
0.49022
0.50489
0.50978
0.51957
0.53523
0.54012
0.55479
0.55479
0.55969
0.57534
0.57045
0.58023
0.58023
0.57045
0.59491
0.6047
0.61546
0.61057
0.62035
0.6047
0.5998
0.62035
0.61057
0.62035
0.61057
0.61057
0.64971
0.68982
0.68493
0.70548
0.73483
0.75049
0.78571
0.79061
0.76517
0.70548
0.63503
0.61057
0.58513
0.5499
0.55479
0.55969
0.5499
0.59002
0.57534
0.57045
0.7407
0.80528
0.75538
0.65558
0.62035
0.63014
0.53523
0.52544
0.51468
0.52544
0.50978
0.53523
0.50978
0.53523
0.5499
0.53033
0.5499
0.56458
0.54012
0.51468
0.53523
0.5499
0.52544
0.54501
0.55969
0.52544
0.51957
0.55969
0.5499
0.55969
0.58023
0.6047
0.5998
0.62035
0.63503
0.59491
0.62524
0.64481
0.5998
0.63014
0.62035
0.66047
0.63503
0.62524
0.63503
0.63014
0.62035
0.63014
0.63992
0.63503
0.65558
0.63503
0.68004
0.71526
0.68982
0.72505
0.76517
0.79061
0.83562
0.7955
0.71037
0.66536
0.64481
0.5998
0.58513
0.57045
0.55479
0.55969
0.56458
0.58513
0.59491
0.58513
0.81018
0.76027
0.67515
0.6047
0.58513
0.54012
0.54012
0.51468
0.51957
0.50978
0.51468
0.53033
0.52544
0.51957
0.53523
0.51468
0.54012
0.53523
0.51957
0.53523
0.51957
0.52544
0.55479
0.54501
0.52544
0.55969
0.5499
0.58023
0.58513
0.57045
0.5998
0.61057
0.59002
0.59491
0.6047
0.61057
0.63503
0.61057
0.63014
0.62524
0.63014
0.61546
0.63014
0.62035
0.63503
0.61546
0.6047
0.63014
0.61057
0.62524
0.61057
0.6047
0.70059
0.70548
0.72016
0.72505
0.7407
0.77006
0.78571
0.77006
0.72994
0.64971
0.59002
0.57045
0.58513
0.53523
0.57045
0.55969
0.57534
0.59491
0.57045
0.66047
0.77984
0.7955
0.66536
0.58513
0.59491
0.53523
0.5
0.54501
0.52544
0.51957
0.53523
0.50978
0.51957
0.53523
0.51468
0.55969
0.51957
0.54501
0.55479
0.51468
0.55479
0.55969
0.54012
0.53523
0.55479
0.5499
0.54012
0.56458
0.59491
0.58023
0.61057
0.61057
0.61057
0.63014
0.62035
0.61546
0.63503
0.63014
0.67025
0.63992
0.68004
0.67025
0.65558
0.67025
0.68004
0.68493
0.68004
0.67515
0.66536
0.65558
0.68004
0.69472
0.72505
0.72016
0.75049
0.7456
0.81507
0.78571
0.81996
0.82485
0.77006
0.70059
0.63503
0.58513
0.65558
0.63992
0.64971
0.62524
0.6047
0.64481
0.68004
0.76517
0.8454
0.76517
0.67025
0.63992
0.75049
0.6047
0.57534
0.62524
0.63014
0.64481
0.62524
0.67025
0.65558
0.61057
0.6047
0.7456
0.70548
0.63503
0.61057
0.71037
0.72994
0.69472
0.75049
0.76027
0.67515
0.7407
0.7955
0.70548
0.7955
0.72994
0.81018
0.79061
0.7456
0.82485
0.72994
0.64481
0.81018
0.79061
0.86497
0.81018
0.80039
0.92564
0.9501
0.83562
0.87084
0.83072
0.88552
0.82485
0.81996
0.87084
0.81018
0.9002
0.92564
0.88552
0.86008
1.001
0.94521
0.94031
1.001
0.85519
0.85519
0.8454
0.73483
0.78571
0.5998
0.78571
0.72016
0.67025
0.76517
0.68982
0.67025
0.87084
0.80528
0.88552
0.7456
0.68004
0.7407
0.5998
0.64481
0.67515
0.59491
0.5499
0.68004
0.63503
0.61057
0.58023
0.63503
0.61057
0.55969
0.55479
0.53033
0.55969
0.55479
0.56458
0.54501
0.53523
0.55479
0.56458
0.51468
0.50978
0.50489
0.57534
0.6047
0.51957
0.54012
0.5998
0.55969
0.54012
0.57045
0.53523
0.62524
0.55969
0.6047
0.55479
0.58023
0.59002
0.51468
0.6047
0.55479
0.54012
0.51957
0.58023
0.49511
0.5998
0.59491
0.63014
0.61057
0.62524
0.64971
0.64481
0.70059
0.67025
0.67515
0.53523
0.44031
0.49511
0.5
0.45499
0.41977
0.3953
0.45499
0.50978
0.47456
0.54012
0.64971
0.55969
0.56458
0.45499
0.54501
0.42466
0.41977
0.40509
0.42955
0.41487
0.42466
0.44521
0.45988
0.41977
0.41487
0.43542
0.46477
0.44031
0.44521
0.4501
0.42466
0.46477
0.44521
0.45499
0.47456
0.41977
0.45988
0.44521
0.48532
0.47456
0.51957
0.5
0.50489
0.49022
0.51468
0.54501
0.5499
0.53033
0.53523
0.5499
0.54012
0.53523
0.54012
0.51957
0.53523
0.57045
0.5499
0.51468
0.51957
0.5
0.51957
0.53033
0.59002
0.63992
0.61057
0.58023
0.65558
0.69472
0.70059
0.68004
0.63992
0.58023
0.51957
0.45499
0.48532
0.46477
0.45499
0.47456
0.44521
0.48043
0.53033
0.50489
0.64481
0.67025
0.57045
0.45988
0.51957
0.54012
0.49022
0.4501
0.44521
0.45988
0.47456
0.45988
0.42955
0.48532
0.49511
0.47456
0.48043
0.46477
0.45988
0.50978
0.53033
0.5499
0.53523
0.55479
0.52544
0.57045
0.59491
0.56458
0.61546
0.58023
0.59002
0.63992
0.64971
0.63503
0.65558
0.66047
0.63992
0.67025
0.63503
0.68004
0.67025
0.65558
0.67025
0.62035
0.61057
0.57534
0.62035
0.57534
0.63503
0.62035
0.75049
0.70548
0.70059
0.68493
0.70548
0.76517
0.72994
0.72505
0.83562
0.7955
0.80039
0.68493
0.76027
0.77984
0.67025
0.64971
0.62524
0.66536
0.68004
0.65558
0.66536
0.58513
0.68493
0.55479
0.54501
0.61546
0.58513
0.66047
0.73483
0.68982
0.6047
0.76027
0.76517
0.66047
0.72016
0.69472
0.77495
0.68004
0.75538
0.72016
0.75049
0.77984
0.71037
0.67515
0.78571
0.79061
0.68004
0.7456
0.77006
0.71526
0.77006
0.65558
0.72994
0.69472
0.75538
0.64971
0.76027
0.80528
0.67025
0.62035
0.66047
0.5998
0.63503
0.4501
0.26517
0.36008
0.34442
0.44031
0.40998
0.45988
0.3953
0.38943
0.52544
0.69472
0.72016
0.77006
0.83562
0.79061
0.80528
0.72994
0.68493
0.73483
0.66536
0.61546
0.63503
0.67025
0.63014
0.64481
0.61546
0.5998
0.62524
0.57534
0.61057
0.51957
0.5
0.50978
0.48043
0.47456
0.51957
0.51468
0.42466
0.44031
0.44521
0.41977
0.43542
0.41487
0.40998
0.38943
0.36497
0.38454
0.33953
0.40509
0.38454
0.37476
0.40509
0.40998
0.35029
0.36986
0.37476
0.35519
0.3953
0.40998
0.37476
0.36986
0.37476
0.36986
0.38454
0.3953
0.37476
0.36986
0.38943
0.38454
0.37965
0.36986
0.38454
0.3953
0.36008
0.38943
0.3953
0.3953
0.38943
0.3953
0.4002
0.37965
0.3953
0.38943
0.3953
0.37965
0.41977
0.38943
0.37476
0.40998
0.42466
0.45499
0.48532
0.49511
0.51957
0.53523
0.51468
0.5499
0.54501
0.50978
0.46477
0.42955
0.4002
0.36986
0.4002
0.40509
0.38943
0.40998
0.4501
0.42466
0.59002
0.63503
0.57045
0.45499
0.44031
0.5
0.41977
0.44521
0.46967
0.44521
0.49022
0.46967
0.45499
0.4501
0.48532
0.51957
0.48532
0.5
0.45499
0.49511
0.50489
0.46477
0.49022
0.4501
0.51957
0.49022
0.48532
0.5
0.45499
0.43542
0.52544
0.51468
0.5499
0.55479
0.51468
0.53523
0.55969
0.59491
0.58513
0.58023
0.57534
0.61057
0.63503
0.6047
0.63014
0.5998
0.57534
0.66047
0.6047
0.62524
0.57534
0.62524
0.6047
0.63992
0.55969
0.61546
0.63014
0.66536
0.65558
0.71037
0.76027
0.77006
0.72505
0.70548
0.76027
0.70059
0.5998
0.58023
0.5499
0.52544
0.54012
0.52544
0.56458
0.52544
0.61057
0.57534
0.68004
0.72994
0.66047
0.58023
0.6047
0.57534
0.59491
0.53033
0.58023
0.51957
0.5499
0.53033
0.56458
0.58023
0.55969
0.52544
0.50489
0.51468
0.5998
0.5499
0.54012
0.61546
0.56458
0.62524
0.68493
0.70059
0.5998
0.71037
0.7456
0.66047
0.73483
0.64971
0.66536
0.72505
0.70059
0.69472
0.76027
0.68004
0.69472
0.68004
0.80039
0.7456
0.70059
0.76027
0.68982
0.73483
0.7456
0.65558
0.63014
0.68982
0.67515
0.68493
0.63992
0.66047
0.71526
0.68493
0.72016
0.70059
0.68493
0.77984
0.80528
0.80528
0.81018
0.7407
0.63992
0.57045
0.57534
0.53523
0.50978
0.51468
0.51468
0.45499
0.50489
0.53033
0.54501
0.5
0.64481
0.62035
0.5
0.47456
0.52544
0.46477
0.44521
0.45499
0.44031
0.44521
0.42466
0.43542
0.40998
0.41977
0.42466
0.45988
0.44521
0.44031
0.4501
0.43542
0.42466
0.40509
0.42466
0.41977
0.45499
0.41977
0.41487
0.42955
0.46477
0.45988
0.46477
0.45499
0.5
0.50978
0.5
0.49511
0.52544
0.5
0.55479
0.56458
0.51957
0.5
0.46967
0.55479
0.53523
0.52544
0.53523
0.50978
0.49511
0.52544
0.48532
0.48043
0.50978
0.51957
0.51468
0.53033
0.55479
0.61057
0.59491
0.64481
0.67025
0.68004
0.64481
0.67025
0.54501
0.50978
0.53033
0.45499
0.48532
0.43542
0.48043
0.45988
0.46477
0.48532
0.51468
0.6047
0.67515
0.6047
0.52544
0.49511
0.57534
0.45988
0.45988
0.44521
0.46967
0.5
0.50978
0.48532
0.45988
0.49511
0.48532
0.50489
0.5499
0.45499
0.51957
0.53033
0.49511
0.55479
0.52544
0.51468
0.53033
0.5
0.49022
0.58513
0.5998
0.53523
0.57534
0.61546
0.6047
0.5998
0.61546
0.61057
0.63014
0.65558
0.6047
0.5998
0.64481
0.65558
0.63503
0.6047
0.64481
0.63992
0.66047
0.61546
0.63503
0.62524
0.63503
0.61057
0.59491
0.6047
0.63992
0.64971
0.68982
0.71526
0.68493
0.72016
0.75538
0.77006
0.78571
0.82485
0.67025
0.62035
0.59491
0.63014
0.54012
0.5499
0.51468
0.48532
0.56458
0.61057
0.59491
0.58023
0.72505
0.65558
0.59491
0.53523
0.61057
0.58513
0.53033
0.53523
0.47456
0.54501
0.51957
0.53033
0.50978
0.53033
0.53523
0.49022
0.50489
0.49022
0.49511
0.49022
0.51468
0.49022
0.47456
0.49022
0.50489
0.46477
0.46967
0.49511
0.50978
0.5
0.53523
0.53033
0.51957
0.50489
0.55479
0.55969
0.58023
0.57045
0.55969
0.58513
0.59002
0.57045
0.57534
0.54501
0.58513
0.57045
0.58513
0.56458
0.58023
0.58513
0.56458
0.55969
0.54012
0.55969
0.55479
0.58023
0.63992
0.65558
0.63503
0.66047
0.71526
0.70059
0.72505
0.69472
0.64481
0.58513
0.54012
0.53033
0.51468
0.5
0.49022
0.51957
0.50978
0.54012
0.57534
0.62524
0.72016
0.68982
0.59491
0.51468
0.54012
0.50489
0.49511
0.48532
0.51468
0.48043
0.52544
0.49022
0.52544
0.5
0.51957
0.51468
0.52544
0.50978
0.53033
0.53523
0.50978
0.52544
0.49511
0.53523
0.54501
0.53523
0.52544
0.53523
0.53523
0.55479
0.6047
0.58513
0.59002
0.55479
0.58513
0.59491
0.58513
0.63992
0.62524
0.59002
0.62524
0.58513
0.63992
0.67515
0.66047
0.63014
0.62035
0.61546
0.65558
0.65558
0.66536
0.64971
0.66536
0.61546
0.63992
0.61057
0.70059
0.7407
0.72505
0.75538
0.77984
0.76517
0.7407
0.78571
0.7955
0.72994
0.66536
0.59002
0.55479
0.58513
0.57045
0.59491
0.62035
0.6047
0.63503
0.5998
0.68493
0.77495
0.69472
0.59002
0.57534
0.64971
0.58513
0.57534
0.55969
0.59491
0.56458
0.58023
0.6047
0.55479
0.58023
0.56458
0.5998
0.57534
0.6047
0.58023
0.5499
0.58023
0.6047
0.53033
0.56458
0.58023
0.58513
0.57045
0.58023
0.51957
0.64971
0.6047
0.64481
0.6047
0.63014
0.63503
0.62524
0.67025
0.64481
0.67025
0.67515
0.66047
0.63503
0.64971
0.64481
0.66536
0.68004
0.64481
0.63014
0.63503
0.61546
0.63503
0.6047
0.58513
0.61057
0.54501
0.4501
0.44031
0.51468
0.27984
0.09002
0
0
0
0
0
0
0
0
0.019569
0.19961
0.4501
0.67515
0.84051
0.87573
0.90509
0.93542
0.92074
0.95499
0.96575
1
1.001
1.001
1.001
1.001
1.001
1.001
1.001
1.001
1.001
1.001
1.001
1.001
1.001
1.001
0.99022
0.88552
0.81996
0.72505
0.67515
0.61546
0.59002
0.55479
0.52544
0.50978
0.51468
0.5
0.48532
0.45499
0.48532
0.46967
0.48532
0.45988
0.43542
0.42955
0.4002
0.40998
0.44031
0.45499
0.42955
0.42466
0.48532
0.49022
0.48043
0.49022
0.44521
0.48043
0.47456
0.54012
0.54501
0.51468
0.50978
0.54012
0.55969
0.63992
0.62035
0.62524
0.68004
0.67025
0.72994
0.75538
0.71037
0.68982
0.69472
0.58513
0.5998
0.56458
0.59002
0.53523
0.56458
0.54012
0.62524
0.64971
0.77006
0.81996
0.70059
0.61546
0.62035
0.63992
0.64971
0.55969
0.54501
0.63014
0.68004
0.56458
0.61057
0.65558
0.5998
0.59491
0.63014
0.59002
0.76517
0.77495
0.63014
0.75049
0.77984
0.71037
0.67515
0.8454
0.71037
0.66047
0.72505
0.80039
0.66536
0.77006
0.77984
0.68493
0.85519
0.79061
0.88063
0.71526
0.82485
0.86008
0.88552
0.7955
0.79061
0.85029
0.90998
0.71037
0.87573
0.80528
0.73483
0.68493
0.83562
0.75538
0.80039
0.71037
0.87573
0.68004
0.72994
0.75538
0.76517
0.72016
0.7955
0.68982
0.66047
0.83562
0.88552
0.81996
0.85029
0.77984
0.86008
0.76027
0.70059
0.67515
0.71037
0.53033
0.50489
0.61057
0.64971
0.53033
0.65558
0.61546
0.67515
0.77495
0.71037
0.7456
0.64971
0.62524
0.59002
0.61546
0.64971
0.54012
0.55969
0.54012
0.6047
0.57534
0.65558
0.70059
0.54012
0.49511
0.59491
0.5499
0.62035
0.56458
0.54012
0.50978
0.5
0.53523
0.51957
0.55969
0.48043
0.45499
0.50489
0.51468
0.49022
0.48532
0.51468
0.51468
0.53523
0.50489
0.49022
0.51468
0.50489
0.53523
0.46967
0.50978
0.5
0.51468
0.48532
0.50978
0.46477
0.45988
0.46477
0.47456
0.45499
0.46477
0.44031
0.43542
0.47456
0.4501
0.45499
0.53033
0.55969
0.57534
0.56458
0.58513
0.6047
0.62035
0.59491
0.51468
0.48532
0.45988
0.42955
0.37965
0.40998
0.38943
0.4002
0.38943
0.44521
0.43542
0.48532
0.61546
0.56458
0.49022
0.45499
0.49511
0.44031
0.41487
0.40998
0.40509
0.41487
0.42466
0.44031
0.46477
0.45499
0.44521
0.44031
0.45499
0.41977
0.41487
0.3953
0.3953
0.37965
0.3953
0.38454
0.4002
0.38943
0.40509
0.3953
0.40998
0.3953
0.44031
0.40509
0.38943
0.41977
0.44031
0.44521
0.40998
0.42955
0.45499
0.47456
0.46477
0.51957
0.50489
0.49022
0.46967
0.4501
0.41977
0.44521
0.42466
0.4501
0.45499
0.47456
0.45988
0.46477
0.46477
0.5
0.53033
0.56458
0.57534
0.5499
0.6047
0.63992
0.67025
0.66047
0.61546
0.53033
0.5
0.46477
0.4501
0.43542
0.46477
0.45499
0.46477
0.45988
0.49511
0.49022
0.71526
0.73483
0.62035
0.54012
0.47456
0.46477
0.4501
0.44031
0.46477
0.46967
0.45988
0.47456
0.44521
0.49022
0.47456
0.48043
0.46477
0.46477
0.47456
0.49022
0.47456
0.48043
0.46477
0.49022
0.47456
0.50978
0.48043
0.50489
0.51468
0.53033
0.52544
0.55479
0.54012
0.53523
0.53033
0.55479
0.55969
0.53523
0.5499
0.55969
0.55479
0.57045
0.59491
0.61546
0.6047
0.5998
0.61057
0.59491
0.6047
0.63014
0.62035
0.63992
0.64481
0.64971
0.61546
0.65558
0.66536
0.63503
0.63014
0.70059
0.66047
0.70548
0.77006
0.75538
0.80039
0.81507
0.80528
0.84051
0.87573
0.85029
0.72994
0.71526
0.66047
0.63992
0.64971
0.66536
0.62035
0.67515
0.63992
0.72016
0.68982
0.9002
0.92074
0.80039
0.66536
0.73483
0.63992
0.63503
0.67025
0.62035
0.6047
0.57045
0.66047
0.62524
0.61546
0.64971
0.62035
0.6047
0.65558
0.62035
0.64481
0.59002
0.71037
0.61057
0.57534
0.59002
0.68982
0.72994
0.63503
0.63014
0.63992
0.67515
0.75049
0.72505
0.68004
0.67515
0.75049
0.6047
0.5998
0.77495
0.76517
0.81018
0.75538
0.84051
0.81996
0.83072
0.79061
0.81507
0.7456
0.81996
0.76517
0.72505
0.71526
0.98043
0.69472
0.7456
0.75049
0.68004
0.83072
0.76027
0.94031
0.97065
0.81996
0.88063
0.94521
0.8953
1
0.68493
0.7456
0.68493
0.65558
0.61546
0.68982
0.63992
0.5998
0.67515
0.70059
0.61546
0.7955
0.85029
0.87084
0.70059
0.61057
0.7456
0.59002
0.63503
0.63992
0.55969
0.58513
0.51957
0.47456
0.66047
0.6047
0.62524
0.50978
0.64971
0.66047
0.46477
0.57534
0.66047
0.62524
0.55479
0.45499
0.58513
0.62524
0.54012
0.67025
0.61546
0.51957
0.49022
0.6047
0.66047
0.5998
0.59002
0.62524
0.59002
0.62524
0.61057
0.63014
0.54501
0.55969
0.61546
0.62524
0.53523
0.57534
0.58513
0.50978
0.52544
0.51468
0.54012
0.54501
0.48043
0.46477
0.5
0.52544
0.53523
0.55969
0.54012
0.53523
0.63014
0.62035
0.64481
0.58513
0.57534
0.48532
0.44521
0.3953
0.38943
0.38454
0.4002
0.38454
0.3953
0.42466
0.44031
0.40509
0.5998
0.61057
0.50489
0.44521
0.47456
0.42955
0.37476
0.36986
0.35029
0.36497
0.33953
0.36497
0.34442
0.38454
0.36497
0.37476
0.35029
0.37476
0.37476
0.37965
0.36497
0.37965
0.36986
0.37476
0.37476
0.38454
0.37965
0.40509
0.41487
0.40998
0.44031
0.43542
0.46477
0.47456
0.49022
0.48532
0.51468
0.50489
0.51957
0.51468
0.53523
0.53523
0.54501
0.53523
0.55969
0.54012
0.55969
0.54501
0.55969
0.54501
0.55969
0.55479
0.5499
0.55969
0.55479
0.58023
0.62035
0.64481
0.63014
0.67515
0.68004
0.72016
0.72994
0.73483
0.66047
0.62035
0.55969
0.54012
0.51468
0.53033
0.50489
0.51468
0.51468
0.55479
0.56458
0.54012
0.7456
0.75049
0.65558
0.57045
0.53523
0.49511
0.48043
0.47456
0.49022
0.46967
0.49022
0.46967
0.47456
0.47456
0.5
0.53033
0.55479
0.54501
0.55969
0.54501
0.5499
0.53523
0.54012
0.53033
0.53523
0.53523
0.5499
0.55479
0.53033
0.54012
0.53523
0.5499
0.53523
0.5499
0.53523
0.55969
0.57534
0.59491
0.58513
0.58513
0.57534
0.61057
0.61546
0.6047
0.58513
0.59491
0.58513
0.58513
0.55969
0.58023
0.58513
0.57534
0.55969
0.57045
0.55969
0.57534
0.5998
0.62035
0.63503
0.64971
0.67025
0.68493
0.72505
0.72505
0.68982
0.62524
0.58513
0.54012
0.52544
0.49022
0.49511
0.49022
0.51468
0.50978
0.5499
0.53033
0.68004
0.75538
0.71526
0.61546
0.51468
0.53033
0.48043
0.49022
0.48043
0.49022
0.49022
0.49022
0.49511
0.50489
0.48532
0.5
0.49022
0.50489
0.48532
0.5
0.49022
0.5
0.48532
0.50489
0.5
0.50489
0.5
0.53033
0.53523
0.53033
0.55969
0.57534
0.58513
0.57045
0.58023
0.57534
0.6047
0.58513
0.61057
0.5998
0.61057
0.61057
0.61546
0.61057
0.63014
0.61546
0.61057
0.6047
0.62035
0.61546
0.63014
0.62524
0.61546
0.63014
0.62524
0.63992
0.63014
0.64971
0.63992
0.71526
0.72016
0.72505
0.7456
0.76517
0.79061
0.81018
0.77495
0.71526
0.63992
0.6047
0.58023
0.56458
0.5499
0.55969
0.5499
0.57045
0.58513
0.59491
0.68004
0.78571
0.72994
0.64481
0.58023
0.59002
0.50489
0.48043
0.49022
0.47456
0.49022
0.46477
0.49022
0.48532
0.48532
0.48043
0.49511
0.49022
0.5
0.48532
0.49511
0.48043
0.49022
0.49511
0.49022
0.50489
0.5
0.51468
0.52544
0.53523
0.53033
0.54501
0.55969
0.57045
0.55969
0.59002
0.58513
0.6047
0.59002
0.61546
0.61057
0.62524
0.62035
0.63992
0.63014
0.64481
0.64971
0.63992
0.64971
0.65558
0.63503
0.63014
0.63992
0.63014
0.64971
0.63503
0.67025
0.70548
0.72016
0.71037
0.76517
0.75538
0.81507
0.7955
0.77495
0.70548
0.66047
0.6047
0.5998
0.56458
0.58513
0.56458
0.55969
0.57045
0.62035
0.59491
0.72505
0.80528
0.75538
0.64481
0.57534
0.59491
0.5
0.51468
0.50489
0.51468
0.49511
0.49022
0.49022
0.50978
0.48043
0.49022
0.49511
0.5
0.47456
0.49022
0.47456
0.49022
0.48043
0.50489
0.49022
0.49511
0.50489
0.5
0.51957
0.51468
0.54012
0.53523
0.55479
0.53523
0.55479
0.54012
0.5499
0.53523
0.56458
0.5499
0.55969
0.57045
0.57534
0.5499
0.57534
0.55969
0.55479
0.55969
0.56458
0.54501
0.54012
0.55969
0.5499
0.56458
0.54012
0.53033
0.59491
0.61057
0.5998
0.63992
0.66047
0.70059
0.72016
0.70059
0.63503
0.59491
0.53033
0.53033
0.50489
0.51957
0.49511
0.51468
0.51468
0.55479
0.54012
0.61057
0.76517
0.76517
0.66047
0.56458
0.53523
0.48532
0.48532
0.47456
0.48532
0.48043
0.49511
0.49022
0.5
0.49022
0.50978
0.5
0.51468
0.50978
0.53033
0.51957
0.53523
0.51957
0.53523
0.53523
0.55969
0.55969
0.58023
0.58513
0.58023
0.6047
0.59002
0.61057
0.6047
0.62035
0.63014
0.63992
0.63503
0.63992
0.63503
0.65558
0.64481
0.66047
0.65558
0.66536
0.66536
0.67515
0.66047
0.67515
0.65558
0.66047
0.65558
0.66536
0.65558
0.64971
0.66047
0.65558
0.66536
0.65558
0.67025
0.72016
0.72505
0.72994
0.76517
0.76027
0.80528
0.81996
0.79061
0.72505
0.68004
0.61546
0.59491
0.56458
0.58023
0.56458
0.57534
0.57045
0.62035
0.61057
0.72505
0.82485
0.77495
0.68982
0.63503
0.65558
0.54012
0.53523
0.52544
0.50978
0.5
0.51468
0.5
0.51468
0.5
0.50978
0.5
0.50978
0.49511
0.51468
0.5
0.51468
0.50489
0.50978
0.50978
0.53033
0.53523
0.53033
0.54501
0.55479
0.56458
0.58023
0.58513
0.59002
0.61057
0.6047
0.61546
0.61057
0.63014
0.62035
0.63503
0.63014
0.64481
0.63992
0.66047
0.64971
0.65558
0.64971
0.65558
0.64971
0.66047
0.65558
0.66047
0.64481
0.64971
0.65558
0.64481
0.68004
0.72016
0.72505
0.72994
0.77006
0.77984
0.81996
0.80528
0.76517
0.68982
0.64971
0.6047
0.58513
0.57045
0.57045
0.5499
0.55969
0.57534
0.61057
0.6047
0.75538
0.80528
0.7407
0.63992
0.61057
0.63503
0.51468
0.51468
0.50489
0.50978
0.49511
0.50978
0.49511
0.50489
0.49511
0.5
0.49022
0.50489
0.49022
0.5
0.48532
0.49022
0.48532
0.5
0.49022
0.50978
0.51468
0.50978
0.51957
0.51468
0.54501
0.53523
0.55479
0.54012
0.57045
0.55479
0.58513
0.58023
0.58513
0.57045
0.59002
0.58513
0.59491
0.58513
0.5998
0.6047
0.61057
0.6047
0.61546
0.61057
0.61057
0.61057
0.62035
0.61057
0.61546
0.61057
0.64481
0.68004
0.67515
0.68982
0.70548
0.72994
0.76027
0.77495
0.72505
0.67025
0.6047
0.57534
0.53523
0.53033
0.51468
0.51957
0.50978
0.53033
0.5499
0.55969
0.64481
0.77006
0.71037
0.62035
0.51957
0.53033
0.46967
0.45988
0.47456
0.46477
0.47456
0.47456
0.49022
0.47456
0.48532
0.47456
0.49511
0.49022
0.49022
0.49022
0.49511
0.48532
0.49511
0.48532
0.50489
0.5
0.51468
0.52544
0.51468
0.53523
0.53033
0.55479
0.5499
0.54012
0.55969
0.57045
0.5499
0.55969
0.54501
0.57045
0.56458
0.57534
0.56458
0.57534
0.56458
0.58513
0.56458
0.55969
0.57045
0.56458
0.55479
0.5499
0.55969
0.5499
0.55969
0.58023
0.61057
0.61546
0.63014
0.66536
0.68493
0.72505
0.75049
0.70548
0.66047
0.59491
0.57534
0.53523
0.54501
0.52544
0.53523
0.53033
0.5499
0.55969
0.56458
0.67025
0.80039
0.77006
0.68982
0.58513
0.56458
0.50489
0.51468
0.52544
0.50978
0.51957
0.51468
0.52544
0.51957
0.54012
0.53523
0.55479
0.54501
0.55969
0.55479
0.55969
0.54501
0.56458
0.55969
0.57534
0.57045
0.58513
0.58513
0.5998
0.6047
0.62035
0.63014
0.62035
0.63014
0.61546
0.63014
0.62524
0.63503
0.63014
0.64971
0.63992
0.65558
0.64481
0.66047
0.65558
0.66047
0.64971
0.66536
0.64971
0.65558
0.64971
0.65558
0.63992
0.64971
0.65558
0.64481
0.65558
0.63992
0.68004
0.71037
0.72505
0.71037
0.76517
0.77495
0.81996
0.80039
0.76517
0.68493
0.63992
0.58023
0.57045
0.55479
0.55969
0.54501
0.55969
0.56458
0.5998
0.59002
0.75538
0.80528
0.7407
0.65558
0.62524
0.63992
0.51468
0.51468
0.50978
0.51468
0.5
0.50978
0.50489
0.51468
0.5
0.51957
0.50489
0.51957
0.50489
0.52544
0.50489
0.51957
0.50978
0.50489
0.51957
0.53523
0.53523
0.54501
0.54012
0.55969
0.55969
0.57045
0.58513
0.58023
0.6047
0.59491
0.61057
0.59491
0.61546
0.6047
0.61057
0.5998
0.63014
0.61057
0.62035
0.5998
0.61057
0.5998
0.61057
0.58023
0.5998
0.57534
0.55479
0.56458
0.54501
0.55969
0.61057
0.63503
0.63014
0.64971
0.66047
0.70059
0.73483
0.75049
0.64971
0.5998
0.53523
0.53523
0.5
0.50489
0.49022
0.50489
0.47456
0.52544
0.51468
0.57045
0.72505
0.72994
0.62524
0.52544
0.49022
0.42955
0.41977
0.42955
0.42466
0.41487
0.42955
0.42466
0.4501
0.43542
0.45988
0.4501
0.46477
0.45499
0.46477
0.46967
0.48043
0.48043
0.49022
0.49022
0.50489
0.51468
0.53033
0.53523
0.54501
0.5499
0.54501
0.55969
0.55969
0.56458
0.55479
0.57045
0.55969
0.57534
0.57534
0.59002
0.58513
0.61057
0.6047
0.62524
0.62035
0.63503
0.62524
0.63992
0.63014
0.63503
0.63014
0.64481
0.63503
0.64971
0.65558
0.64481
0.69472
0.72016
0.72994
0.72505
0.77006
0.79061
0.82485
0.81018
0.76027
0.68982
0.64481
0.6047
0.59002
0.57045
0.57534
0.55969
0.58023
0.59002
0.61057
0.59491
0.77984
0.81996
0.7407
0.63992
0.61057
0.62035
0.53033
0.54012
0.52544
0.51957
0.52544
0.53033
0.53033
0.54012
0.53033
0.54012
0.53523
0.54501
0.53033
0.53523
0.51468
0.52544
0.51468
0.53523
0.53523
0.54012
0.54501
0.53523
0.5499
0.55969
0.57534
0.55969
0.55479
0.56458
0.58023
0.56458
0.57534
0.56458
0.58023
0.56458
0.58513
0.58023
0.5998
0.59002
0.61057
0.58513
0.61057
0.59002
0.61057
0.5998
0.61057
0.59491
0.6047
0.59491
0.61057
0.63014
0.65558
0.66536
0.68982
0.70548
0.73483
0.77006
0.7456
0.70548
0.64481
0.6047
0.55969
0.5499
0.53033
0.54501
0.55479
0.53523
0.55969
0.59002
0.58513
0.77495
0.80528
0.71037
0.61546
0.56458
0.50489
0.48043
0.5
0.49022
0.51468
0.49022
0.5
0.49022
0.5
0.49022
0.50489
0.49022
0.51468
0.49022
0.50978
0.49511
0.50978
0.50489
0.51957
0.53033
0.53523
0.54012
0.53523
0.56458
0.55479
0.56458
0.55969
0.57534
0.55969
0.58023
0.57045
0.57534
0.57045
0.58513
0.58513
0.6047
0.5998
0.62035
0.61057
0.63014
0.62035
0.63014
0.63014
0.63992
0.63503
0.63014
0.63992
0.63503
0.64481
0.63503
0.64971
0.64481
0.70059
0.71526
0.72505
0.72016
0.76517
0.7955
0.83072
0.7955
0.7456
0.67515
0.63992
0.59491
0.59002
0.56458
0.58023
0.56458
0.58513
0.61057
0.61057
0.68493
0.82485
0.78571
0.71526
0.63503
0.64971
0.5499
0.51468
0.52544
0.50978
0.51468
0.49511
0.51468
0.50489
0.51957
0.50489
0.51468
0.50489
0.51468
0.5
0.51468
0.49511
0.50978
0.50489
0.51468
0.50978
0.52544
0.51957
0.54012
0.54501
0.54012
0.57045
0.56458
0.58023
0.58513
0.59491
0.58513
0.61057
0.6047
0.62524
0.61546
0.62524
0.62035
0.63503
0.62524
0.64481
0.63014
0.63992
0.63014
0.64481
0.63014
0.63014
0.62035
0.63014
0.62035
0.63992
0.67515
0.70059
0.70548
0.72994
0.75049
0.77984
0.80039
0.77006
0.72016
0.64971
0.61546
0.57045
0.55969
0.5499
0.55969
0.54012
0.55969
0.58513
0.59491
0.59002
0.79061
0.7955
0.70059
0.61546
0.63503
0.53523
0.5
0.50978
0.49022
0.49022
0.5
0.50978
0.49022
0.49022
0.48532
0.49022
0.47456
0.47456
0.46477
0.46967
0.46477
0.46967
0.45499
0.46967
0.46477
0.49022
0.48043
0.49511
0.49022
0.51468
0.51468
0.53033
0.53523
0.51957
0.53033
0.52544
0.55479
0.5499
0.55969
0.5499
0.58023
0.56458
0.56458
0.57045
0.58513
0.55969
0.58513
0.56458
0.57045
0.58513
0.57045
0.55479
0.56458
0.57045
0.61546
0.62524
0.61546
0.64481
0.66536
0.70548
0.73483
0.71526
0.64971
0.5998
0.5499
0.53033
0.50489
0.50978
0.5
0.50978
0.5
0.53523
0.51957
0.59491
0.75049
0.76027
0.66047
0.58023
0.54012
0.48043
0.46967
0.48532
0.49022
0.47456
0.49022
0.48532
0.50489
0.5
0.51468
0.50978
0.51957
0.51468
0.53033
0.51957
0.53523
0.53033
0.54501
0.54012
0.55479
0.5499
0.57045
0.57534
0.58513
0.58513
0.61057
0.5998
0.61057
0.6047
0.61546
0.62035
0.61057
0.62524
0.61546
0.63503
0.62524
0.63992
0.62524
0.63503
0.63014
0.64971
0.63992
0.64481
0.63503
0.65558
0.63503
0.64481
0.63014
0.63014
0.63014
0.63014
0.63014
0.68493
0.69472
0.70059
0.72505
0.73483
0.76517
0.7955
0.80039
0.72016
0.66047
0.61057
0.58513
0.55479
0.55479
0.54501
0.55969
0.55479
0.6047
0.61057
0.67515
0.7955
0.77495
0.69472
0.63014
0.62524
0.5499
0.51957
0.51468
0.51957
0.49511
0.50978
0.50489
0.51468
0.5
0.50489
0.49022
0.50978
0.48043
0.49022
0.48043
0.46477
0.46477
0.48043
0.47456
0.49511
0.48532
0.5
0.50489
0.53523
0.54012
0.53033
0.5499
0.55969
0.54501
0.57045
0.57534
0.56458
0.57045
0.58513
0.57534
0.58513
0.59002
0.58513
0.59002
0.58513
0.6047
0.5998
0.61546
0.58513
0.6047
0.61057
0.5998
0.59002
0.61057
0.63992
0.67025
0.66536
0.69472
0.70548
0.7407
0.77006
0.77006
0.71037
0.63992
0.59002
0.55479
0.53523
0.53033
0.53523
0.51957
0.53033
0.52544
0.56458
0.55969
0.77495
0.75538
0.71037
0.6047
0.58513
0.50978
0.49022
0.5
0.49022
0.47456
0.48532
0.49022
0.48532
0.49511
0.49022
0.5
0.49511
0.5
0.49511
0.5
0.49022
0.5
0.49022
0.50489
0.49511
0.51468
0.51468
0.53523
0.53033
0.54501
0.55479
0.56458
0.55479
0.56458
0.55969
0.57045
0.56458
0.58023
0.58513
0.58023
0.5998
0.58513
0.59491
0.59002
0.6047
0.59491
0.61057
0.5998
0.61546
0.6047
0.61057
0.5998
0.6047
0.59491
0.61057
0.62524
0.67025
0.67515
0.66047
0.70059
0.72994
0.76517
0.77006
0.72994
0.67515
0.62035
0.59002
0.58023
0.54012
0.53523
0.54012
0.5499
0.54012
0.58513
0.57534
0.70548
0.80039
0.76517
0.64971
0.59491
0.5998
0.50489
0.49511
0.51468
0.49511
0.50978
0.51468
0.49022
0.50489
0.49022
0.5
0.50489
0.48532
0.47456
0.50978
0.46477
0.47456
0.48532
0.49511
0.5
0.51468
0.5
0.50978
0.53033
0.52544
0.5499
0.54501
0.54012
0.57045
0.55479
0.56458
0.58023
0.57534
0.58513
0.59002
0.57045
0.58513
0.59002
0.6047
0.61546
0.58513
0.5998
0.58513
0.59002
0.58513
0.6047
0.58513
0.59491
0.59002
0.64481
0.63992
0.64971
0.66536
0.70548
0.73483
0.77006
0.73483
0.67025
0.61546
0.57534
0.54501
0.53033
0.53033
0.52544
0.53523
0.53033
0.55969
0.5499
0.65558
0.78571
0.7955
0.68493
0.5998
0.57045
0.51468
0.50978
0.51468
0.50978
0.51468
0.51957
0.51468
0.53523
0.53033
0.54012
0.53523
0.54501
0.53523
0.55479
0.54501
0.55479
0.5499
0.56458
0.55479
0.57045
0.55969
0.58513
0.58513
0.5998
0.59491
0.61057
0.61057
0.61546
0.61057
0.62035
0.61057
0.63014
0.62035
0.63014
0.63503
0.63014
0.63992
0.63503
0.64971
0.63992
0.64481
0.63014
0.64971
0.63014
0.63503
0.62524
0.63992
0.62524
0.62524
0.61546
0.64971
0.67025
0.69472
0.68493
0.72016
0.72994
0.77495
0.80039
0.77984
0.71037
0.64971
0.6047
0.58023
0.55479
0.54012
0.55479
0.54012
0.55969
0.59002
0.6047
0.59491
0.80528
0.76517
0.71037
0.62524
0.64481
0.52544
0.51468
0.49022
0.50978
0.49022
0.49022
0.49511
0.50489
0.51468
0.5
0.49511
0.49022
0.50489
0.49022
0.50978
0.49511
0.50978
0.49022
0.50978
0.50489
0.51957
0.51468
0.53523
0.54012
0.55969
0.55969
0.59002
0.58513
0.5998
0.59002
0.61057
0.61057
0.62524
0.62035
0.63992
0.64971
0.63992
0.65558
0.64971
0.66536
0.65558
0.65558
0.64481
0.65558
0.64481
0.65558
0.64481
0.65558
0.67025
0.71526
0.71526
0.71037
0.73483
0.76027
0.77006
0.80039
0.7407
0.68982
0.62035
0.58023
0.53523
0.51957
0.50978
0.5
0.51468
0.50489
0.53523
0.54012
0.63014
0.76517
0.7407
0.63992
0.56458
0.57045
0.49511
0.48043
0.50978
0.48043
0.5
0.46967
0.46477
0.48043
0.49022
0.49022
0.49022
0.46477
0.47456
0.46477
0.48532
0.49022
0.4501
0.48043
0.46477
0.48043
0.49511
0.51468
0.49022
0.52544
0.51957
0.55969
0.53523
0.55479
0.55969
0.55969
0.55479
0.57534
0.58513
0.58023
0.59002
0.6047
0.5998
0.61057
0.61546
0.61057
0.63014
0.61546
0.62524
0.61546
0.63503
0.61546
0.63014
0.62524
0.68982
0.68982
0.70059
0.72016
0.75049
0.77495
0.81018
0.77495
0.72016
0.66047
0.62524
0.59002
0.58513
0.57045
0.58023
0.58023
0.57534
0.61057
0.61546
0.68493
0.82485
0.79061
0.71037
0.64971
0.65558
0.58023
0.5499
0.55479
0.53523
0.54501
0.53523
0.54501
0.53033
0.54501
0.53033
0.54012
0.53523
0.54012
0.53523
0.54501
0.5499
0.53523
0.55479
0.54012
0.55479
0.54501
0.56458
0.57534
0.58513
0.58023
0.59491
0.58513
0.61057
0.61057
0.62524
0.61057
0.63014
0.62524
0.63503
0.63014
0.63992
0.63014
0.63992
0.64971
0.63992
0.63014
0.64481
0.63014
0.62524
0.64481
0.63014
0.64481
0.62524
0.67025
0.69472
0.70548
0.70059
0.7456
0.75538
0.7955
0.77495
0.75538
0.67515
0.63503
0.59002
0.56458
0.54012
0.5499
0.54012
0.54501
0.55969
0.58513
0.58023
0.7456
0.7955
0.70548
0.62524
0.6047
0.63503
0.51468
0.50978
0.49511
0.51468
0.50489
0.50978
0.50489
0.51957
0.51468
0.50978
0.5
0.51468
0.50489
0.51468
0.5
0.50978
0.51468
0.50489
0.51468
0.51957
0.51468
0.53033
0.54501
0.53523
0.55479
0.54501
0.57534
0.57045
0.58513
0.59002
0.61057
0.5998
0.62524
0.61546
0.63503
0.61546
0.63503
0.63014
0.64971
0.63014
0.63503
0.64481
0.63992
0.63992
0.63503
0.62524
0.61546
0.65558
0.68982
0.70059
0.68982
0.73483
0.72994
0.77495
0.77006
0.7407
0.66536
0.62524
0.58023
0.55969
0.54501
0.5499
0.54501
0.55969
0.57045
0.61057
0.59491
0.72994
0.80039
0.72016
0.63014
0.6047
0.62035
0.50489
0.51468
0.50978
0.50489
0.5
0.51957
0.49511
0.5
0.49022
0.49022
0.49022
0.50489
0.47456
0.49022
0.48532
0.50489
0.49511
0.49022
0.49022
0.53033
0.54501
0.51957
0.54012
0.55969
0.57534
0.55969
0.57045
0.55969
0.58513
0.58023
0.58513
0.59002
0.59491
0.59491
0.6047
0.59002
0.62524
0.61057
0.62524
0.5998
0.61546
0.61057
0.62524
0.61057
0.62524
0.61057
0.6047
0.63992
0.66047
0.65558
0.69472
0.70548
0.73483
0.76517
0.7407
0.68982
0.63014
0.59002
0.55969
0.5499
0.53523
0.5499
0.53523
0.5499
0.55969
0.57045
0.56458
0.77006
0.72994
0.64481
0.54501
0.53523
0.48532
0.49022
0.49511
0.49022
0.49022
0.49022
0.49511
0.50978
0.51468
0.50978
0.51957
0.50978
0.53033
0.52544
0.54012
0.51957
0.53033
0.51957
0.53523
0.53523
0.55479
0.54012
0.56458
0.55969
0.57045
0.58023
0.5998
0.58513
0.59491
0.61057
0.61546
0.62035
0.61057
0.62524
0.62035
0.63503
0.62524
0.64481
0.63503
0.64971
0.66536
0.67515
0.64481
0.66536
0.66047
0.67515
0.64971
0.65558
0.63503
0.65558
0.67515
0.71526
0.72016
0.73483
0.75049
0.76517
0.80528
0.81018
0.76517
0.68982
0.64971
0.61057
0.57534
0.56458
0.57534
0.57045
0.57534
0.56458
0.62035
0.6047
0.76027
0.77984
0.69472
0.62035
0.64481
0.6047
0.54012
0.51468
0.50978
0.51468
0.50489
0.50978
0.5
0.51468
0.51468
0.50489
0.50978
0.51468
0.5
0.50978
0.5
0.50489
0.50978
0.49511
0.5
0.51468
0.50978
0.51468
0.51468
0.53523
0.5499
0.55969
0.55969
0.57045
0.57534
0.57045
0.58513
0.5998
0.6047
0.58513
0.62035
0.63014
0.63014
0.63014
0.62524
0.62035
0.63992
0.62524
0.63014
0.62035
0.63014
0.62035
0.63014
0.64481
0.68982
0.70059
0.71037
0.72016
0.75049
0.79061
0.80039
0.7407
0.69472
0.64481
0.5998
0.57534
0.55479
0.5499
0.53523
0.5499
0.57045
0.59491
0.57045
0.67515
0.76027
0.68493
0.62035
0.6047
0.63014
0.52544
0.51468
0.51957
0.5
0.50489
0.51468
0.50978
0.5
0.50978
0.49511
0.50489
0.50978
0.48532
0.50489
0.49511
0.50489
0.49511
0.50489
0.49511
0.51468
0.51957
0.54012
0.54501
0.53523
0.54501
0.57045
0.55969
0.57045
0.57534
0.59491
0.5998
0.59491
0.61057
0.6047
0.62524
0.61057
0.63014
0.63014
0.62035
0.61057
0.61546
0.61057
0.62035
0.59002
0.58513
0.59002
0.59491
0.58513
0.63992
0.63992
0.63992
0.66536
0.68982
0.72994
0.7456
0.70059
0.65558
0.5998
0.57045
0.53523
0.54012
0.53033
0.52544
0.54012
0.52544
0.55479
0.54012
0.62524
0.73483
0.68982
0.57045
0.50978
0.52544
0.49022
0.49022
0.49022
0.48043
0.5
0.48532
0.50489
0.49022
0.49022
0.51468
0.50489
0.51468
0.53523
0.50978
0.49511
0.5
0.51468
0.51468
0.51957
0.51957
0.53033
0.51468
0.51957
0.53523
0.54501
0.5499
0.53523
0.5499
0.54501
0.5499
0.53523
0.55479
0.55479
0.56458
0.55969
0.56458
0.57534
0.58023
0.58513
0.58023
0.57534
0.56458
0.57045
0.58023
0.56458
0.57045
0.58023
0.57534
0.62035
0.62035
0.63992
0.67515
0.68004
0.70059
0.75049
0.73483
0.68004
0.62035
0.57534
0.54012
0.53033
0.50978
0.51468
0.51468
0.52544
0.55969
0.58023
0.55969
0.7407
0.76517
0.68493
0.61546
0.5998
0.61057
0.51957
0.52544
0.51468
0.53033
0.53523
0.53033
0.53523
0.53033
0.54501
0.5499
0.54012
0.53523
0.5499
0.55969
0.55969
0.58023
0.59491
0.56458
0.58513
0.6047
0.59491
0.6047
0.61546
0.5998
0.62035
0.61546
0.63014
0.63014
0.63014
0.64971
0.65558
0.63503
0.64971
0.64481
0.65558
0.64971
0.66536
0.63503
0.62035
0.62524
0.61057
0.5998
0.58513
0.58023
0.57045
0.58513
0.56458
0.58023
0.63992
0.65558
0.63503
0.68004
0.68004
0.72994
0.75049
0.72994
0.66536
0.61057
0.57045
0.54501
0.51957
0.53033
0.51957
0.53033
0.53523
0.59002
0.59491
0.70548
0.78571
0.75049
0.68004
0.63992
0.65558
0.51468
0.48532
0.46477
0.45988
0.44031
0.44521
0.41487
0.43542
0.42955
0.44521
0.42466
0.42955
0.42466
0.42955
0.41977
0.42955
0.43542
0.41977
0.42955
0.44031
0.4501
0.44521
0.46477
0.48043
0.48532
0.50978
0.52544
0.50978
0.53523
0.54501
0.55479
0.5499
0.55969
0.55479
0.57534
0.58023
0.59002
0.58513
0.58513
0.59491
0.61057
0.61057
0.5998
0.58513
0.58023
0.58513
0.57534
0.61546
0.64971
0.65558
0.64971
0.70059
0.69472
0.7407
0.7456
0.71526
0.63503
0.58513
0.5499
0.52544
0.5
0.5
0.5
0.50978
0.50489
0.53523
0.53033
0.63503
0.73483
0.68493
0.59491
0.55969
0.57534
0.49511
0.49022
0.48532
0.49022
0.47456
0.46967
0.46477
0.45988
0.46477
0.46967
0.45988
0.45988
0.45499
0.46477
0.4501
0.4501
0.44521
0.4501
0.45988
0.45499
0.46477
0.48043
0.48043
0.48532
0.49022
0.49511
0.51468
0.51468
0.53033
0.53033
0.53523
0.54501
0.55479
0.55479
0.55969
0.58513
0.58513
0.57534
0.58513
0.58513
0.58513
0.58023
0.58513
0.57534
0.56458
0.55969
0.56458
0.5998
0.61057
0.61057
0.63014
0.64971
0.67025
0.70059
0.69472
0.64481
0.58513
0.52544
0.49022
0.48532
0.47456
0.48043
0.47456
0.49511
0.50978
0.53523
0.53033
0.7407
0.76517
0.68493
0.57045
0.53523
0.5
0.46477
0.47456
0.45988
0.45499
0.4501
0.46967
0.46477
0.48532
0.48043
0.49022
0.5
0.51468
0.50978
0.51957
0.52544
0.53523
0.52544
0.55969
0.55969
0.57045
0.55969
0.58513
0.59491
0.6047
0.61057
0.62035
0.62524
0.63014
0.63992
0.65558
0.66047
0.65558
0.66536
0.68493
0.69472
0.68493
0.70059
0.70548
0.70059
0.70059
0.70059
0.70059
0.70548
0.70059
0.70548
0.69472
0.70059
0.69472
0.71037
0.75049
0.77006
0.77006
0.79061
0.80528
0.83562
0.86008
0.82485
0.76027
0.71037
0.67025
0.63503
0.63014
0.62524
0.61057
0.5998
0.6047
0.64971
0.65558
0.71037
0.85029
0.80528
0.72016
0.68004
0.70548
0.61057
0.59002
0.57045
0.56458
0.55479
0.54501
0.5499
0.5499
0.55479
0.5499
0.55969
0.56458
0.55969
0.55479
0.55479
0.56458
0.55969
0.55479
0.55969
0.55969
0.55969
0.55969
0.56458
0.57045
0.58513
0.58513
0.58513
0.59002
0.58513
0.58023
0.5998
0.61057
0.63014
0.63014
0.61546
0.63014
0.63992
0.62524
0.63503
0.64971
0.64481
0.64971
0.63503
0.64481
0.63992
0.63503
0.64481
0.67025
0.70059
0.69472
0.72016
0.75049
0.76027
0.81507
0.81996
0.76517
0.70548
0.64971
0.61057
0.58513
0.58513
0.58023
0.57045
0.55969
0.59002
0.61546
0.6047
0.77006
0.81996
0.7456
0.67025
0.62524
0.63503
0.54012
0.53523
0.53523
0.53523
0.53033
0.52544
0.53523
0.54501
0.54501
0.54501
0.5499
0.54012
0.5499
0.55969
0.5499
0.5499
0.55969
0.5499
0.55969
0.55479
0.57045
0.55479
0.57045
0.57534
0.59491
0.6047
0.5998
0.6047
0.61057
0.62035
0.61546
0.62035
0.62524
0.61057
0.62035
0.62524
0.63992
0.63014
0.64481
0.63992
0.63503
0.62524
0.61546
0.63014
0.61057
0.62035
0.62524
0.63014
0.66047
0.68004
0.68493
0.71037
0.72505
0.76027
0.77006
0.7456
0.68982
0.62035
0.56458
0.54501
0.54501
0.5499
0.53523
0.53033
0.54012
0.56458
0.5499
0.65558
0.76517
0.70059
0.61546
0.57534
0.58513
0.51957
0.50978
0.49511
0.47456
0.46967
0.49022
0.48043
0.49511
0.49022
0.47456
0.48532
0.49022
0.5
0.49022
0.49511
0.49022
0.49511
0.49022
0.5
0.49022
0.5
0.51468
0.53523
0.52544
0.53523
0.5499
0.54501
0.55969
0.56458
0.55969
0.58513
0.57534
0.58513
0.5998
0.6047
0.61057
0.61057
0.61057
0.61057
0.62035
0.63992
0.62035
0.62524
0.63014
0.61057
0.6047
0.5998
0.64971
0.66536
0.67515
0.69472
0.71526
0.7407
0.76517
0.77006
0.70548
0.62035
0.58513
0.56458
0.53033
0.52544
0.53523
0.51957
0.51468
0.53033
0.5499
0.53033
0.70059
0.75049
0.66536
0.57045
0.52544
0.49511
0.46477
0.49022
0.49022
0.48532
0.49022
0.49022
0.5
0.49022
0.49022
0.50489
0.51468
0.50978
0.51468
0.50978
0.49511
0.50978
0.50489
0.51468
0.52544
0.51957
0.53523
0.52544
0.54501
0.5499
0.55969
0.54501
0.5499
0.55969
0.57534
0.58513
0.58023
0.58513
0.59491
0.59002
0.6047
0.61546
0.61546
0.62524
0.62035
0.62524
0.62035
0.63014
0.63014
0.63014
0.62524
0.63014
0.63503
0.67515
0.70548
0.71526
0.73483
0.75049
0.7456
0.7955
0.77984
0.73483
0.67025
0.62035
0.58023
0.55969
0.53523
0.53523
0.53523
0.5499
0.54012
0.58513
0.57534
0.7456
0.77495
0.68982
0.59491
0.53523
0.54012
0.49022
0.5
0.5
0.49022
0.48532
0.49511
0.48043
0.48043
0.49022
0.50489
0.50978
0.5
0.50978
0.50489
0.50489
0.50978
0.5
0.50978
0.53033
0.52544
0.54501
0.5499
0.55969
0.57045
0.58513
0.57045
0.57534
0.56458
0.59002
0.59491
0.58513
0.61057
0.63014
0.61057
0.62524
0.62035
0.63014
0.63014
0.64481
0.63992
0.63503
0.64481
0.65558
0.66047
0.65558
0.65558
0.67515
0.71526
0.72505
0.70059
0.75538
0.77006
0.7955
0.80528
0.78571
0.72994
0.67515
0.63503
0.6047
0.58023
0.58513
0.59002
0.57045
0.58513
0.61057
0.62035
0.61546
0.82485
0.77495
0.71037
0.63992
0.63014
0.55479
0.53033
0.54501
0.54012
0.53523
0.54012
0.54501
0.53523
0.54501
0.53523
0.53033
0.53523
0.52544
0.51957
0.54012
0.51957
0.50978
0.53523
0.53523
0.51957
0.53523
0.52544
0.53523
0.55479
0.55969
0.57534
0.56458
0.58513
0.57534
0.59002
0.59491
0.59491
0.61546
0.63014
0.63014
0.63503
0.63014
0.63992
0.64481
0.63992
0.64971
0.64971
0.65558
0.65558
0.64971
0.63992
0.64971
0.68493
0.71037
0.71526
0.73483
0.7456
0.77006
0.80528
0.79061
0.72994
0.68493
0.63992
0.61057
0.58023
0.57045
0.58513
0.57534
0.57534
0.6047
0.61546
0.61057
0.81996
0.83562
0.72994
0.64971
0.65558
0.59491
0.55479
0.55969
0.55479
0.5499
0.5499
0.55479
0.54501
0.5499
0.55479
0.5499
0.55969
0.53523
0.55969
0.55969
0.55969
0.55479
0.55969
0.56458
0.58023
0.57534
0.58023
0.58513
0.6047
0.61546
0.61057
0.6047
0.62035
0.63503
0.63014
0.63992
0.63992
0.63992
0.63503
0.64481
0.64971
0.64971
0.64481
0.65558
0.64971
0.65558
0.65558
0.65558
0.64971
0.64481
0.64971
0.63014
0.64971
0.68982
0.70059
0.70059
0.72016
0.7407
0.77006
0.7955
0.76517
0.71037
0.66047
0.6047
0.58023
0.55969
0.55969
0.55969
0.55479
0.55479
0.57534
0.58513
0.63503
0.77495
0.72994
0.63992
0.58513
0.6047
0.54501
0.51468
0.51468
0.51957
0.51468
0.50978
0.51468
0.51468
0.51468
0.51957
0.51468
0.51957
0.52544
0.52544
0.51957
0.51468
0.51468
0.51468
0.51468
0.51957
0.51957
0.53033
0.53523
0.54012
0.55479
0.56458
0.55969
0.57045
0.57534
0.58023
0.58513
0.59002
0.58513
0.5998
0.62035
0.62035
0.62524
0.62035
0.62524
0.62035
0.62524
0.62035
0.62035
0.63014
0.63992
0.62035
0.62524
0.65558
0.68004
0.67515
0.68004
0.71526
0.7407
0.77495
0.78571
0.73483
0.68493
0.62035
0.58513
0.56458
0.55479
0.55479
0.5499
0.5499
0.55969
0.58513
0.57045
0.70059
0.76517
0.69472
0.59491
0.54501
0.56458
0.49511
0.49511
0.51468
0.50489
0.50489
0.49511
0.50489
0.50978
0.51468
0.50978
0.50489
0.50978
0.51468
0.50978
0.50978
0.50978
0.49511
0.49022
0.52544
0.51468
0.50978
0.53033
0.53523
0.52544
0.53523
0.53033
0.54012
0.54501
0.53523
0.53033
0.54501
0.55479
0.55479
0.55969
0.5499
0.55479
0.56458
0.55969
0.57045
0.58023
0.57045
0.57534
0.58023
0.57045
0.57534
0.57534
0.6047
0.63014
0.63503
0.64971
0.66536
0.68982
0.7407
0.75049
0.71526
0.66047
0.6047
0.56458
0.54012
0.53033
0.52544
0.53523
0.51957
0.53523
0.56458
0.55479
0.67515
0.75538
0.71037
0.63014
0.55969
0.57045
0.49511
0.50489
0.50489
0.50489
0.50489
0.51468
0.50489
0.50978
0.51468
0.52544
0.50978
0.51957
0.53033
0.52544
0.51957
0.52544
0.51957
0.53033
0.53523
0.54012
0.53523
0.54501
0.55969
0.57534
0.57534
0.58513
0.59002
0.58513
0.59002
0.59491
0.6047
0.5998
0.61546
0.62035
0.62035
0.62524
0.63014
0.62524
0.63014
0.63503
0.63014
0.62524
0.62524
0.62524
0.62035
0.63014
0.61057
0.62035
0.63992
0.68004
0.68982
0.68493
0.72505
0.7407
0.77495
0.7955
0.75538
0.69472
0.63503
0.6047
0.58023
0.56458
0.55969
0.55969
0.55969
0.57534
0.59491
0.59002
0.72994
0.80039
0.7407
0.66047
0.61057
0.63503
0.53033
0.51957
0.51468
0.51468
0.50489
0.51468
0.51468
0.50978
0.51468
0.51957
0.50489
0.49511
0.5
0.50489
0.50489
0.49511
0.49022
0.49511
0.50978
0.50978
0.51468
0.52544
0.51957
0.54012
0.5499
0.55969
0.55969
0.55969
0.56458
0.58023
0.58513
0.6047
0.5998
0.61057
0.61546
0.62524
0.63014
0.63992
0.63503
0.63992
0.63503
0.63014
0.63014
0.63014
0.63503
0.63014
0.62524
0.65558
0.68004
0.68004
0.70059
0.71037
0.72994
0.77006
0.75538
0.70059
0.64481
0.59491
0.56458
0.54012
0.53523
0.53523
0.53033
0.52544
0.55479
0.56458
0.55969
0.75538
0.76517
0.67515
0.57534
0.5499
0.55969
0.48532
0.49511
0.48532
0.48043
0.48532
0.48043
0.48532
0.49022
0.49511
0.49022
0.49511
0.49022
0.49511
0.49511
0.49022
0.49022
0.49511
0.49022
0.5
0.50978
0.51468
0.51468
0.51468
0.53033
0.52544
0.54012
0.55479
0.55969
0.55969
0.55969
0.57534
0.58513
0.58023
0.59002
0.5998
0.61057
0.6047
0.5998
0.5998
0.5998
0.59491
0.59002
0.6047
0.58023
0.58513
0.57534
0.57045
0.62035
0.64971
0.63992
0.66047
0.68004
0.68493
0.72505
0.73483
0.68493
0.62035
0.57045
0.5499
0.54012
0.53523
0.53033
0.53033
0.53523
0.55479
0.56458
0.55479
0.72994
0.76027
0.66536
0.59491
0.58023
0.54012
0.5
0.49511
0.49511
0.50489
0.49511
0.50489
0.50978
0.49022
0.5
0.50489
0.49022
0.50489
0.49511
0.49511
0.50489
0.50978
0.5
0.51468
0.5
0.51468
0.50978
0.51957
0.53523
0.5499
0.54501
0.54012
0.56458
0.57534
0.56458
0.59491
0.62524
0.63014
0.61057
0.64481
0.63014
0.63014
0.63014
0.66536
0.63503
0.64481
0.65558
0.67025
0.64481
0.66047
0.64971
0.62524
0.64971
0.67515
0.72016
0.72505
0.72016
0.76027
0.77006
0.80528
0.81507
0.76517
0.71526
0.66536
0.61546
0.59002
0.58513
0.5998
0.55969
0.61546
0.6047
0.61546
0.64481
0.76027
0.85519
0.77495
0.67025
0.62524
0.64971
0.62035
0.58513
0.5499
0.58023
0.59002
0.59491
0.55969
0.55969
0.53523
0.57534
0.58513
0.55969
0.55969
0.57534
0.54501
0.52544
0.50489
0.58023
0.54501
0.58023
0.59491
0.6047
0.57045
0.63503
0.5998
0.67515
0.63992
0.68004
0.68982
0.64481
0.63014
0.70548
0.72016
0.72016
0.73483
0.64481
0.77495
0.7955
0.77984
0.72994
0.70059
0.76517
0.81018
0.72505
0.7456
0.67515
0.77495
0.63014
0.69472
0.80528
0.77006
0.89041
0.90509
0.95499
0.92564
0.96086
0.9002
0.90998
0.76027
0.83562
0.77984
0.83562
0.66047
0.78571
0.69472
0.77006
0.81507
0.7407
0.81507
0.93542
0.77984
0.73483
0.8454
0.68493
0.66047
0.73483
0.80039
0.61057
0.64481
0.61546
0.75049
0.66536
0.68004
0.61057
0.6047
0.67515
0.75538
0.64971
0.6047
0.63503
0.66047
0.62524
0.66047
0.67025
0.61546
0.6047
0.68982
0.61057
0.71526
0.72994
0.66536
0.66047
0.69472
0.70059
0.67025
0.66536
0.71037
0.68982
0.68004
0.64971
0.63014
0.62524
0.64971
0.67025
0.63014
0.57045
0.61057
0.59491
0.59002
0.61057
0.57045
0.55479
0.57534
0.53033
0.61546
0.64481
0.5998
0.58513
0.63992
0.64481
0.68004
0.67515
0.59002
0.51957
0.53523
0.48043
0.43542
0.41977
0.40509
0.4501
0.38943
0.4501
0.46477
0.42955
0.57045
0.63503
0.59491
0.48043
0.46967
0.50489
0.40509
0.44031
0.4002
0.35519
0.3953
0.40509
0.36008
0.41977
0.42466
0.36986
0.41487
0.4501
0.3953
0.38943
0.41487
0.37476
0.4002
0.42955
0.42466
0.44521
0.42955
0.44031
0.40998
0.4501
0.44521
0.44521
0.50489
0.50978
0.48532
0.50489
0.48532
0.51468
0.52544
0.51957
0.54012
0.51468
0.51957
0.50978
0.57534
0.54012
0.50978
0.49022
0.51468
0.49022
0.53033
0.54501
0.50489
0.49022
0.52544
0.50978
0.53523
0.53033
0.59002
0.61546
0.6047
0.61057
0.68493
0.69472
0.70059
0.64481
0.58023
0.51468
0.53523
0.46967
0.44521
0.51957
0.46477
0.45988
0.50978
0.49022
0.5499
0.63503
0.70548
0.63503
0.57534
0.57045
0.58023
0.53033
0.48532
0.4501
0.45988
0.49022
0.5
0.51957
0.48532
0.49022
0.48043
0.47456
0.5
0.49022
0.51957
0.48043
0.49511
0.48043
0.53033
0.48532
0.52544
0.53033
0.51957
0.50489
0.51468
0.50489
0.55969
0.55479
0.58023
0.55969
0.56458
0.57534
0.56458
0.6047
0.58513
0.6047
0.61546
0.62035
0.56458
0.6047
0.56458
0.63014
0.57534
0.58513
0.59002
0.57534
0.55969
0.58513
0.55969
0.57045
0.57534
0.56458
0.55969
0.59002
0.63503
0.65558
0.66047
0.64971
0.63992
0.69472
0.71037
0.67515
0.63014
0.57045
0.55969
0.50978
0.46967
0.47456
0.45988
0.48043
0.49022
0.53033
0.5
0.59002
0.69472
0.64971
0.57045
0.50978
0.55479
0.47456
0.44031
0.48043
0.46477
0.45499
0.46477
0.44521
0.45988
0.45499
0.47456
0.48532
0.50978
0.49511
0.48532
0.46477
0.49511
0.45988
0.4501
0.50489
0.51957
0.53033
0.50978
0.51468
0.49511
0.57045
0.61057
0.54501
0.53523
0.62035
0.6047
0.63992
0.61546
0.67025
0.62524
0.72016
0.68004
0.72016
0.64481
0.72016
0.71037
0.76027
0.63992
0.75049
0.73483
0.63503
0.71526
0.66047
0.64971
0.79061
0.77006
0.8454
0.95499
0.73483
0.8454
0.72994
1.001
0.82485
0.80039
0.9002
0.9501
0.94031
0.96575
0.81507
0.87573
0.65558
0.68004
0.65558
0.64971
0.72505
0.63014
0.65558
0.55969
0.76517
0.61546
0.86497
0.75049
0.71526
0.63992
0.63503
0.68004
0.62035
0.69472
0.55969
0.4501
0.70548
0.51957
0.57045
0.70059
0.66047
0.54501
0.5499
0.54012
0.57045
0.63503
0.51468
0.71526
0.63014
0.48043
0.50489
0.63992
0.61057
0.58513
0.63503
0.52544
0.58513
0.58023
0.63992
0.59491
0.71037
0.75538
0.59491
0.7407
0.61057
0.63014
0.69472
0.71526
0.62524
0.62035
0.68004
0.62035
0.5998
0.63503
0.6047
0.61546
0.59002
0.62035
0.56458
0.53523
0.56458
0.50978
0.53033
0.55969
0.51957
0.51468
0.57045
0.59491
0.59002
0.61057
0.5998
0.58513
0.63992
0.64971
0.5998
0.53523
0.48532
0.4501
0.41487
0.40998
0.42955
0.41977
0.3953
0.38943
0.45499
0.41977
0.53523
0.5998
0.55479
0.48532
0.44521
0.46967
0.41487
0.38454
0.36497
0.38454
0.37476
0.35029
0.36008
0.3953
0.3953
0.4002
0.38454
0.37965
0.37476
0.38943
0.3953
0.38454
0.37476
0.40509
0.41487
0.3953
0.40998
0.38943
0.38454
0.42955
0.43542
0.42955
0.47456
0.44521
0.48532
0.49022
0.49511
0.5
0.51957
0.50489
0.50978
0.51468
0.52544
0.51957
0.51468
0.52544
0.51957
0.54501
0.50489
0.5
0.54012
0.51957
0.51468
0.51468
0.53033
0.51957
0.50489
0.51468
0.50978
0.55479
0.55969
0.59002
0.61057
0.58513
0.61546
0.62524
0.67025
0.64481
0.66047
0.57534
0.53523
0.49022
0.46477
0.48532
0.49511
0.46967
0.49022
0.48043
0.55479
0.5
0.63503
0.71526
0.64971
0.50978
0.51957
0.52544
0.49022
0.49511
0.5
0.48532
0.50978
0.50978
0.48043
0.50978
0.51957
0.49511
0.53523
0.50978
0.50489
0.55969
0.50489
0.52544
0.50978
0.52544
0.51957
0.56458
0.52544
0.58513
0.57534
0.58513
0.54501
0.58513
0.6047
0.58513
0.57045
0.6047
0.58513
0.63503
0.6047
0.63992
0.61546
0.58023
0.62524
0.63992
0.62524
0.64971
0.6047
0.61057
0.58513
0.61057
0.63503
0.61546
0.5998
0.62524
0.58023
0.57045
0.62524
0.58513
0.62524
0.58023
0.64481
0.67515
0.67025
0.70059
0.69472
0.72994
0.72016
0.75538
0.72994
0.63992
0.64481
0.57534
0.54501
0.58023
0.56458
0.57534
0.54012
0.57534
0.6047
0.58513
0.69472
0.77495
0.68982
0.61546
0.56458
0.61546
0.53033
0.52544
0.5499
0.58023
0.55969
0.53033
0.57045
0.57534
0.53033
0.56458
0.55969
0.57534
0.52544
0.5499
0.59002
0.6047
0.53033
0.5499
0.52544
0.55479
0.54501
0.57045
0.5499
0.54501
0.5998
0.56458
0.59491
0.57534
0.61546
0.59002
0.58023
0.63503
0.5998
0.62524
0.61546
0.64481
0.62524
0.65558
0.62035
0.62524
0.61057
0.61546
0.63503
0.61057
0.6047
0.62035
0.58023
0.63014
0.5998
0.59002
0.55969
0.55479
0.59002
0.59002
0.64971
0.66536
0.65558
0.68493
0.67515
0.68493
0.67515
0.63992
0.57534
0.53033
0.52544
0.50978
0.49022
0.49022
0.48532
0.46477
0.48532
0.51468
0.50978
0.58023
0.66536
0.61546
0.50489
0.46967
0.53033
0.46967
0.45988
0.45499
0.4501
0.45499
0.46477
0.45988
0.45499
0.4501
0.44521
0.4501
0.44521
0.46477
0.46477
0.46477
0.45499
0.45499
0.45499
0.46967
0.46967
0.46967
0.47456
0.47456
0.49022
0.50489
0.51468
0.54501
0.55479
0.55969
0.56458
0.53523
0.57534
0.5998
0.61057
0.58513
0.63992
0.6047
0.63014
0.62035
0.61057
0.63014
0.64971
0.62524
0.63503
0.62524
0.61057
0.63992
0.64481
0.6047
0.63014
0.62035
0.61546
0.63014
0.64971
0.70548
0.70059
0.69472
0.72016
0.7456
0.75049
0.72505
0.67025
0.63014
0.6047
0.58513
0.57045
0.59002
0.5998
0.52544
0.59002
0.61546
0.5998
0.58023
0.77495
0.77984
0.64481
0.6047
0.58513
0.55969
0.53033
0.51468
0.55969
0.53033
0.55969
0.54012
0.53523
0.54012
0.51468
0.53523
0.51957
0.54501
0.55479
0.52544
0.51957
0.53523
0.52544
0.54012
0.5499
0.51957
0.51468
0.5499
0.54501
0.56458
0.55479
0.56458
0.54012
0.53523
0.57534
0.6047
0.6047
0.58513
0.59002
0.6047
0.59002
0.61057
0.5998
0.59491
0.61057
0.59491
0.61057
0.5998
0.61057
0.5998
0.61057
0.6047
0.59491
0.5998
0.58023
0.57534
0.58023
0.58023
0.58023
0.57534
0.63503
0.64971
0.65558
0.64481
0.66536
0.66047
0.67025
0.63992
0.62035
0.57534
0.54012
0.51957
0.51468
0.51468
0.51468
0.51957
0.53033
0.55969
0.57045
0.63014
0.76517
0.71526
0.62035
0.54501
0.57534
0.52544
0.50489
0.50978
0.50489
0.50978
0.5
0.5
0.49511
0.51468
0.50489
0.51468
0.5
0.49022
0.5
0.51468
0.49511
0.49022
0.50489
0.50978
0.49511
0.51468
0.51468
0.51957
0.53033
0.54501
0.53523
0.5499
0.55969
0.55479
0.55969
0.55479
0.58023
0.56458
0.59002
0.58023
0.59491
0.58513
0.6047
0.6047
0.62524
0.5998
0.61057
0.61057
0.6047
0.59491
0.61057
0.59002
0.6047
0.61546
0.5998
0.61057
0.59491
0.61057
0.63992
0.68004
0.67025
0.67025
0.69472
0.71526
0.72016
0.71526
0.69472
0.64971
0.6047
0.57534
0.54501
0.53523
0.53523
0.54501
0.54501
0.55479
0.57534
0.56458
0.68004
0.76517
0.68493
0.59491
0.53523
0.57534
0.51468
0.50978
0.51468
0.50978
0.51957
0.51468
0.5
0.50489
0.50978
0.50489
0.51468
0.49511
0.50978
0.50489
0.51468
0.49511
0.51468
0.51957
0.51468
0.51468
0.52544
0.53033
0.52544
0.54501
0.5499
0.55969
0.55479
0.5499
0.55479
0.57534
0.59491
0.59002
0.58023
0.59491
0.5998
0.62035
0.61546
0.62035
0.63014
0.61546
0.61546
0.62524
0.63014
0.62035
0.6047
0.59002
0.5998
0.6047
0.59002
0.58513
0.59002
0.58513
0.61057
0.63014
0.63014
0.63992
0.67025
0.68004
0.69472
0.68493
0.66047
0.6047
0.55969
0.52544
0.5
0.49022
0.49022
0.49022
0.49022
0.5
0.52544
0.53033
0.63992
0.7407
0.68982
0.5998
0.50489
0.51468
0.46477
0.47456
0.46967
0.46477
0.46477
0.48043
0.46967
0.47456
0.46967
0.46967
0.46967
0.48043
0.46477
0.49022
0.48532
0.48043
0.49022
0.49022
0.49022
0.49511
0.50978
0.51468
0.52544
0.51957
0.53523
0.54012
0.5499
0.54501
0.56458
0.57045
0.56458
0.58023
0.57534
0.58023
0.57534
0.59002
0.5998
0.5998
0.5998
0.59491
0.61057
0.61546
0.6047
0.6047
0.5998
0.61057
0.6047
0.5998
0.6047
0.61546
0.61057
0.61546
0.61057
0.62035
0.6047
0.64481
0.67515
0.68004
0.69472
0.71526
0.72994
0.77495
0.76517
0.72016
0.66047
0.62035
0.57534
0.55479
0.5499
0.53523
0.53033
0.53523
0.55969
0.58023
0.57534
0.76517
0.78571
0.68004
0.5998
0.58513
0.5998
0.49511
0.50489
0.49022
0.5
0.49022
0.49511
0.49022
0.49511
0.49022
0.50489
0.49511
0.50978
0.49511
0.5
0.49511
0.50489
0.50978
0.51468
0.52544
0.51468
0.53033
0.51468
0.54012
0.53523
0.55479
0.55969
0.57045
0.57045
0.59002
0.59002
0.61057
0.61057
0.61057
0.62035
0.63014
0.63503
0.64481
0.64481
0.65558
0.64971
0.64971
0.65558
0.65558
0.65558
0.64481
0.64971
0.64481
0.65558
0.63503
0.64971
0.64481
0.64971
0.68004
0.72016
0.71526
0.73483
0.76027
0.77984
0.81507
0.81996
0.76027
0.70548
0.65558
0.61057
0.58023
0.57534
0.58023
0.58023
0.57045
0.56458
0.61057
0.59491
0.77495
0.81018
0.72505
0.63503
0.62035
0.63503
0.53523
0.51468
0.51468
0.51468
0.50978
0.52544
0.51957
0.50978
0.51957
0.51957
0.51468
0.51468
0.51468
0.50978
0.51468
0.5
0.50978
0.51468
0.50489
0.5
0.51468
0.51468
0.53033
0.52544
0.53523
0.53523
0.54012
0.55969
0.56458
0.55969
0.55479
0.57534
0.58023
0.57045
0.59002
0.58023
0.58023
0.58513
0.58513
0.5998
0.61057
0.61546
0.5998
0.58513
0.58513
0.6047
0.61057
0.5998
0.61057
0.58513
0.61057
0.64971
0.65558
0.66047
0.68004
0.72016
0.75049
0.76517
0.7407
0.67515
0.61546
0.56458
0.5499
0.52544
0.51957
0.53033
0.51468
0.53523
0.55479
0.56458
0.55969
0.77006
0.75538
0.65558
0.56458
0.54501
0.5
0.50978
0.51468
0.51957
0.51468
0.53033
0.51957
0.52544
0.54012
0.54501
0.54012
0.5499
0.55969
0.55479
0.55969
0.55969
0.56458
0.57534
0.58513
0.59491
0.6047
0.61057
0.61546
0.62524
0.63014
0.63992
0.64971
0.65558
0.64481
0.64481
0.65558
0.66047
0.67025
0.68004
0.68004
0.68493
0.70059
0.70059
0.71037
0.70548
0.70548
0.71037
0.70548
0.70548
0.70548
0.71037
0.70059
0.68982
0.68493
0.69472
0.68982
0.68493
0.68004
0.69472
0.72505
0.73483
0.72994
0.75538
0.76027
0.80039
0.81996
0.78571
0.72505
0.66536
0.61546
0.59491
0.58023
0.56458
0.57534
0.56458
0.58513
0.62035
0.61546
0.71037
0.81507
0.75538
0.68982
0.63503
0.66047
0.55969
0.5499
0.53523
0.5499
0.53523
0.53033
0.54501
0.53033
0.53523
0.53033
0.54501
0.53033
0.53523
0.53033
0.53523
0.53523
0.53523
0.53523
0.54501
0.54012
0.54501
0.5499
0.55969
0.56458
0.57045
0.58513
0.5998
0.59491
0.61546
0.6047
0.62524
0.63014
0.62524
0.63014
0.64971
0.63992
0.64971
0.64971
0.65558
0.64971
0.65558
0.64481
0.65558
0.64971
0.64481
0.64971
0.63992
0.63014
0.63014
0.64481
0.63014
0.66047
0.70548
0.71037
0.72505
0.75538
0.76517
0.7955
0.80528
0.76027
0.68982
0.63503
0.5998
0.57534
0.55969
0.55969
0.55479
0.54501
0.57045
0.59491
0.5998
0.70059
0.80039
0.72994
0.65558
0.62035
0.64481
0.53033
0.51468
0.52544
0.51957
0.50489
0.50978
0.52544
0.51957
0.51468
0.51957
0.52544
0.51957
0.53033
0.51957
0.51957
0.5
0.49022
0.49022
0.49511
0.50978
0.51468
0.50489
0.51468
0.53033
0.54501
0.55479
0.54012
0.54501
0.56458
0.55969
0.58023
0.58513
0.59491
0.59002
0.59491
0.6047
0.5998
0.61057
0.5998
0.6047
0.61057
0.59002
0.59002
0.5998
0.58023
0.57534
0.57045
0.58513
0.58513
0.59002
0.62035
0.63503
0.63014
0.66047
0.67515
0.70548
0.7407
0.73483
0.68004
0.62524
0.56458
0.53523
0.52544
0.50489
0.5
0.51468
0.51957
0.51468
0.5499
0.53523
0.7407
0.77006
0.67515
0.59491
0.54012
0.50489
0.49022
0.5
0.49022
0.49022
0.49022
0.49511
0.5
0.50978
0.5
0.5
0.51957
0.50978
0.50978
0.51957
0.52544
0.51468
0.52544
0.53523
0.54012
0.54012
0.55479
0.55969
0.57045
0.56458
0.56458
0.58023
0.58023
0.58513
0.5998
0.6047
0.5998
0.61546
0.61057
0.62035
0.62524
0.61546
0.63014
0.63014
0.63503
0.62524
0.63503
0.62035
0.63014
0.62035
0.63014
0.62035
0.63014
0.61546
0.63014
0.62035
0.63014
0.62524
0.64481
0.66536
0.68982
0.68004
0.71526
0.72994
0.76027
0.78571
0.77984
0.72505
0.66047
0.61057
0.56458
0.55969
0.56458
0.55969
0.5499
0.55969
0.58023
0.6047
0.59491
0.7955
0.75538
0.67515
0.62035
0.64971
0.55479
0.51468
0.50489
0.51957
0.50489
0.5
0.50978
0.5
0.5
0.50489
0.49511
0.49022
0.50978
0.50489
0.5
0.50489
0.49022
0.49511
0.49022
0.5
0.51468
0.51468
0.51957
0.53523
0.54501
0.55479
0.56458
0.55969
0.56458
0.58023
0.57534
0.5998
0.61057
0.6047
0.61057
0.61057
0.62524
0.62524
0.63992
0.63014
0.62524
0.64481
0.63992
0.63503
0.63503
0.63014
0.63014
0.63503
0.63992
0.63503
0.63503
0.63992
0.67515
0.70059
0.70059
0.72505
0.7407
0.76517
0.7955
0.77495
0.72016
0.66047
0.61546
0.58513
0.55969
0.55969
0.55969
0.55479
0.55479
0.58513
0.6047
0.59002
0.77495
0.75538
0.70548
0.63992
0.68493
0.59491
0.53033
0.51468
0.50978
0.50489
0.50978
0.50489
0.51957
0.51468
0.51468
0.51957
0.51468
0.51468
0.51957
0.51468
0.51468
0.51468
0.50978
0.51468
0.51468
0.51468
0.53033
0.54012
0.53523
0.55969
0.57045
0.58023
0.58513
0.59002
0.6047
0.6047
0.61057
0.61546
0.62524
0.63503
0.63503
0.63014
0.63014
0.62524
0.62524
0.64481
0.63014
0.62524
0.63014
0.66047
0.63992
0.62035
0.61057
0.61546
0.62524
0.61057
0.61546
0.63992
0.66047
0.65558
0.67515
0.69472
0.71526
0.7456
0.75049
0.68004
0.63014
0.57534
0.53523
0.51468
0.50489
0.50489
0.50489
0.50978
0.50489
0.53033
0.51468
0.71526
0.7456
0.66536
0.59491
0.5499
0.50978
0.48043
0.47456
0.46967
0.46477
0.45988
0.46967
0.46477
0.47456
0.46967
0.49022
0.48043
0.48532
0.48043
0.49022
0.49022
0.49511
0.5
0.51468
0.50978
0.52544
0.53523
0.54012
0.54012
0.56458
0.57534
0.59491
0.58513
0.59002
0.5998
0.62035
0.5998
0.59002
0.62035
0.63014
0.62524
0.63503
0.62524
0.63014
0.61546
0.61057
0.64481
0.61057
0.62035
0.59002
0.61057
0.5998
0.58023
0.58513
0.58023
0.57045
0.57534
0.58023
0.58513
0.61057
0.62035
0.62035
0.64481
0.67025
0.70059
0.72994
0.71037
0.65558
0.59491
0.53033
0.51468
0.49511
0.49511
0.50489
0.49022
0.5
0.51468
0.51468
0.50978
0.72016
0.72505
0.6047
0.53033
0.49022
0.41977
0.4002
0.42466
0.42955
0.42466
0.41977
0.42955
0.42955
0.42466
0.43542
0.44521
0.46477
0.46477
0.45499
0.45499
0.44521
0.4501
0.44521
0.46477
0.46477
0.47456
0.48043
0.49022
0.47456
0.53033
0.53523
0.53523
0.51957
0.54012
0.55969
0.5499
0.55479
0.54012
0.56458
0.58513
0.58513
0.61546
0.63014
0.61057
0.62524
0.61546
0.63014
0.61057
0.62524
0.62524
0.63503
0.64481
0.62524
0.64971
0.63014
0.64481
0.62524
0.62035
0.66536
0.63992
0.66536
0.68493
0.73483
0.7456
0.72505
0.77495
0.83072
0.86008
0.77984
0.7456
0.72505
0.69472
0.63992
0.59002
0.6047
0.57045
0.63992
0.61546
0.70548
0.64481
0.7407
0.81507
0.88552
0.78571
0.68982
0.7456
0.62035
0.61057
0.65558
0.59002
0.62524
0.61546
0.64971
0.61057
0.63992
0.55479
0.6047
0.62035
0.53033
0.68004
0.75049
0.66047
0.63014
0.81018
0.67515
0.75538
0.81018
0.79061
0.72505
0.78571
0.72016
0.83562
0.78571
0.70059
0.81996
0.86497
0.77495
0.81018
0.80039
0.75049
0.78571
0.87573
0.71526
0.87573
0.80528
0.7955
0.83072
0.75049
0.71526
0.77495
0.83072
0.71037
0.70548
0.78571
0.73483
0.80039
0.70059
0.72994
0.68004
0.61546
0.58513
0.41487
0.49022
0.50489
0.62035
0.64481
0.55479
0.54012
0.5
0.5998
0.63992
0.58023
0.72016
0.83072
0.68982
0.72016
0.69472
0.72994
0.64481
0.76027
0.76517
0.67025
0.8454
0.76517
0.73483
0.81507
0.76027
0.82485
0.83562
0.72994
0.81996
0.77984
0.71526
0.76027
0.7456
0.77495
0.58023
0.73483
0.71037
0.75538
0.72016
0.68493
0.70548
0.63992
0.66047
0.63992
0.61546
0.62524
0.55479
0.5998
0.61057
0.5499
0.53523
0.59491
0.5499
0.57045
0.55479
0.54501
0.50489
0.5
0.51468
0.53523
0.50489
0.48532
0.5
0.47456
0.45988
0.50489
0.46477
0.49511
0.46477
0.4501
0.46477
0.45499
0.46477
0.49022
0.43542
0.46967
0.50489
0.53033
0.52544
0.54012
0.58513
0.58513
0.62035
0.63992
0.61546
0.53033
0.48532
0.44031
0.44521
0.40509
0.3953
0.41487
0.41977
0.40509
0.42955
0.45499
0.6047
0.67025
0.57534
0.51468
0.43542
0.49022
0.40998
0.3953
0.37965
0.35519
0.37965
0.36986
0.34442
0.37965
0.3953
0.40509
0.36986
0.38943
0.40998
0.38454
0.38943
0.36986
0.38454
0.37476
0.38454
0.37476
0.37476
0.33953
0.32975
0.37965
0.41487
0.3953
0.41977
0.42955
0.40509
0.44521
0.4501
0.48532
0.46477
0.49511
0.47456
0.49511
0.48532
0.47456
0.5
0.45499
0.5
0.48043
0.50489
0.46967
0.48532
0.49022
0.48043
0.48532
0.44521
0.48043
0.49511
0.48043
0.51468
0.5499
0.54012
0.56458
0.6047
0.5998
0.67025
0.69472
0.64481
0.58023
0.53033
0.50978
0.46967
0.45988
0.49022
0.45988
0.47456
0.44521
0.50978
0.5
0.57045
0.71037
0.67515
0.6047
0.54012
0.56458
0.49511
0.4501
0.46477
0.4501
0.44031
0.48043
0.45499
0.44031
0.45988
0.46477
0.45988
0.49022
0.47456
0.46967
0.48532
0.50489
0.46967
0.49022
0.50489
0.46477
0.49511
0.50978
0.51957
0.51468
0.53033
0.5499
0.55969
0.56458
0.58513
0.58023
0.59491
0.6047
0.59491
0.58513
0.58513
0.6047
0.61057
0.59002
0.6047
0.6047
0.61057
0.5998
0.61057
0.59491
0.6047
0.59491
0.5998
0.58023
0.57534
0.59002
0.58513
0.59002
0.58513
0.59002
0.61546
0.64481
0.64971
0.68004
0.70059
0.72016
0.76027
0.76517
0.71526
0.65558
0.6047
0.58023
0.5499
0.54012
0.55479
0.57045
0.55479
0.5499
0.57045
0.55479
0.7407
0.80039
0.81507
0.68982
0.59491
0.61546
0.52544
0.53523
0.53033
0.53523
0.54012
0.53033
0.53523
0.54012
0.53033
0.5499
0.53523
0.52544
0.54501
0.55969
0.54501
0.51468
0.53523
0.51957
0.55479
0.54501
0.5499
0.55479
0.54012
0.55969
0.57045
0.57534
0.6047
0.58023
0.59002
0.6047
0.58513
0.6047
0.5998
0.61057
0.59491
0.62524
0.61546
0.63014
0.62524
0.61057
0.61546
0.62035
0.6047
0.59491
0.61057
0.5998
0.59002
0.57045
0.50489
0.3953
0.28963
0.24462
0.26517
0.27984
0.31996
0.35029
0.30528
0.36986
0.50489
0.62035
0.67515
0.70548
0.70059
0.67025
0.64971
0.63014
0.63014
0.63503
0.62524
0.63503
0.64971
0.67515
0.66536
0.69472
0.70059
0.68493
0.68004
0.68493
0.66536
0.67515
0.66047
0.64481
0.63014
0.63503
0.63014
0.62524
0.63014
0.61057
0.6047
0.5998
0.5998
0.6047
0.5998
0.58513
0.58513
0.58513
0.59491
0.58513
0.6047
0.61546
0.5998
0.59491
0.6047
0.61546
0.59491
0.61057
0.6047
0.61546
0.61057
0.61057
0.6047
0.61057
0.61057
0.61057
0.6047
0.59491
0.6047
0.5998
0.5998
0.59491
0.59491
0.61057
0.59491
0.58513
0.5998
0.6047
0.58513
0.59491
0.59491
0.59491
0.58023
0.57534
0.56458
0.55969
0.58513
0.59002
0.58513
0.62035
0.65558
0.65558
0.65558
0.69472
0.72016
0.7456
0.76517
0.71526
0.65558
0.6047
0.57045
0.53523
0.54501
0.53523
0.54012
0.53523
0.57534
0.5998
0.58513
0.77984
0.77984
0.71037
0.65558
0.61546
0.56458
0.53033
0.51468
0.53033
0.51468
0.53033
0.53523
0.53033
0.54012
0.53523
0.55969
0.53523
0.54501
0.5499
0.50978
0.54012
0.54501
0.52544
0.51468
0.53523
0.52544
0.55479
0.51468
0.54012
0.55969
0.5499
0.56458
0.55969
0.5499
0.57045
0.58513
0.58513
0.6047
0.61546
0.63503
0.63014
0.62524
0.61057
0.63503
0.62524
0.61546
0.6047
0.64481
0.63014
0.61546
0.63014
0.61546
0.61057
0.61546
0.6047
0.61546
0.6047
0.61057
0.61057
0.61546
0.5998
0.66047
0.68004
0.68493
0.68004
0.71526
0.7407
0.77495
0.77984
0.72016
0.66047
0.61057
0.58513
0.55969
0.5499
0.56458
0.5499
0.55479
0.57534
0.59002
0.58513
0.77495
0.7955
0.70059
0.63014
0.6047
0.61546
0.53033
0.51957
0.51957
0.51468
0.51957
0.53523
0.51468
0.53523
0.52544
0.51957
0.53523
0.52544
0.52544
0.51468
0.53033
0.5
0.53033
0.53523
0.53523
0.53033
0.54012
0.55479
0.57045
0.56458
0.59002
0.57534
0.58023
0.58023
0.58513
0.59491
0.59002
0.58513
0.5998
0.61546
0.59491
0.5998
0.59491
0.61057
0.5998
0.61057
0.6047
0.59491
0.58513
0.6047
0.58513
0.59491
0.57045
0.57045
0.56458
0.58023
0.57534
0.57534
0.61057
0.63014
0.63992
0.66047
0.67025
0.68493
0.72505
0.7407
0.67025
0.6047
0.55479
0.53033
0.50489
0.49022
0.51468
0.50978
0.49022
0.51468
0.54012
0.52544
0.71526
0.75049
0.66536
0.58513
0.50978
0.48532
0.46967
0.48532
0.49022
0.48532
0.49022
0.48532
0.49022
0.5
0.49022
0.49022
0.48043
0.49511
0.48532
0.49022
0.48532
0.48043
0.48532
0.47456
0.5
0.51468
0.51468
0.51957
0.53033
0.54501
0.55479
0.54012
0.55479
0.54501
0.55969
0.55479
0.57534
0.56458
0.59491
0.58513
0.61057
0.61057
0.62524
0.61546
0.62035
0.62524
0.63014
0.63014
0.63503
0.63992
0.64481
0.64971
0.65558
0.63503
0.63992
0.63014
0.64481
0.63014
0.64481
0.63014
0.63503
0.63014
0.66047
0.70059
0.68493
0.71526
0.73483
0.76027
0.7955
0.80039
0.7407
0.68982
0.62035
0.5998
0.58023
0.57045
0.55479
0.55969
0.54012
0.57534
0.6047
0.58023
0.77495
0.80039
0.71526
0.63992
0.64971
0.59491
0.53033
0.51468
0.50978
0.50489
0.50978
0.5
0.5
0.49511
0.51468
0.51468
0.51957
0.50489
0.5
0.50978
0.51468
0.50978
0.51468
0.50978
0.50978
0.51957
0.51468
0.51468
0.53033
0.54012
0.54012
0.55479
0.55969
0.57045
0.58023
0.58513
0.59002
0.6047
0.5998
0.62524
0.61546
0.61546
0.63014
0.62524
0.63014
0.63503
0.63992
0.63014
0.63503
0.62035
0.63014
0.62035
0.63014
0.62035
0.61057
0.62035
0.61057
0.61057
0.63503
0.68004
0.70059
0.70548
0.72505
0.7407
0.77984
0.77006
0.7407
0.67025
0.62035
0.58513
0.5499
0.54501
0.5499
0.54501
0.53523
0.55479
0.58513
0.58023
0.72505
0.77984
0.70059
0.63014
0.62524
0.64481
0.50978
0.49022
0.49022
0.49022
0.49022
0.49511
0.49022
0.49022
0.49022
0.49511
0.49511
0.5
0.50978
0.5
0.49511
0.51468
0.49022
0.5
0.51468
0.51468
0.50978
0.53523
0.52544
0.55479
0.57045
0.56458
0.58513
0.58023
0.57045
0.57534
0.59002
0.5998
0.6047
0.59491
0.58513
0.59002
0.59491
0.58023
0.57534
0.59002
0.58513
0.59002
0.58513
0.58023
0.57534
0.59002
0.57534
0.58513
0.58023
0.56458
0.58513
0.63014
0.63992
0.65558
0.66047
0.67515
0.71037
0.7456
0.71037
0.65558
0.5998
0.55969
0.51957
0.50978
0.51468
0.52544
0.50489
0.49511
0.5499
0.53523
0.59491
0.75049
0.72505
0.63014
0.53523
0.50978
0.48043
0.48532
0.49511
0.46967
0.48532
0.49022
0.49511
0.48043
0.48043
0.49022
0.49022
0.50489
0.49022
0.48532
0.48043
0.49022
0.49022
0.49022
0.50489
0.50978
0.51468
0.52544
0.54012
0.5499
0.55479
0.5499
0.55969
0.54501
0.5499
0.55969
0.56458
0.55969
0.57045
0.58513
0.57045
0.59002
0.58023
0.59002
0.5998
0.59002
0.6047
0.59491
0.61057
0.5998
0.61057
0.61057
0.61057
0.6047
0.59491
0.61057
0.62524
0.58023
0.61057
0.61546
0.66047
0.66536
0.66536
0.66047
0.72016
0.7456
0.80039
0.77495
0.76027
0.67025
0.62524
0.59002
0.57534
0.55479
0.54501
0.55479
0.55969
0.59002
0.59491
0.58513
0.81018
0.82485
0.77006
0.66536
0.63014
0.63992
0.53033
0.53523
0.50978
0.5499
0.52544
0.51957
0.51468
0.53523
0.52544
0.54501
0.52544
0.51468
0.50489
0.54012
0.53523
0.53033
0.51957
0.5499
0.55479
0.55969
0.58023
0.61057
0.61546
0.61057
0.63014
0.5998
0.61057
0.57534
0.54501
0.56458
0.55969
0.58513
0.58513
0.58023
0.55969
0.57534
0.59002
0.5998
0.58513
0.6047
0.59491
0.58513
0.58513
0.59491
0.57045
0.58513
0.58023
0.5998
0.58023
0.58513
0.59491
0.64481
0.66047
0.68004
0.69472
0.71037
0.7456
0.77495
0.76517
0.72016
0.65558
0.5998
0.58513
0.58023
0.56458
0.55969
0.55479
0.57534
0.56458
0.5998
0.63992
0.7955
0.81507
0.73483
0.66047
0.68982
0.5998
0.52544
0.53033
0.50978
0.49511
0.50978
0.51468
0.49022
0.53523
0.48532
0.48043
0.52544
0.51468
0.51468
0.5
0.50489
0.50489
0.51468
0.5
0.49511
0.51468
0.51468
0.52544
0.51468
0.54012
0.55969
0.54012
0.56458
0.55479
0.58023
0.58513
0.58513
0.58023
0.58023
0.57534
0.61057
0.5998
0.58513
0.6047
0.59491
0.58513
0.62035
0.6047
0.61057
0.61546
0.61546
0.62524
0.6047
0.61057
0.5998
0.6047
0.66047
0.68493
0.68004
0.72016
0.73483
0.76517
0.79061
0.7955
0.70548
0.66047
0.6047
0.57045
0.54501
0.51468
0.53523
0.54012
0.53523
0.55969
0.57045
0.56458
0.75538
0.73483
0.65558
0.58023
0.55969
0.49511
0.45988
0.46477
0.45499
0.44521
0.44521
0.42955
0.41977
0.43542
0.42466
0.4501
0.44521
0.4501
0.42955
0.44521
0.44031
0.43542
0.45499
0.45988
0.4501
0.46477
0.46967
0.48532
0.50489
0.49022
0.50489
0.50489
0.49022
0.52544
0.51957
0.53523
0.50978
0.53523
0.5499
0.55969
0.53523
0.54012
0.5499
0.56458
0.54501
0.58023
0.56458
0.55969
0.58513
0.57045
0.58023
0.57534
0.58023
0.55969
0.6047
0.62035
0.63992
0.63503
0.70059
0.68493
0.75049
0.76027
0.71526
0.65558
0.6047
0.54501
0.53523
0.54012
0.54501
0.5499
0.5499
0.55479
0.5998
0.58513
0.69472
0.81507
0.81996
0.71037
0.5998
0.57045
0.52544
0.52544
0.53523
0.53033
0.54012
0.53523
0.52544
0.5499
0.54012
0.54501
0.53523
0.58023
0.5499
0.57045
0.58023
0.57534
0.59491
0.58513
0.5998
0.61057
0.59491
0.61057
0.61057
0.63503
0.64481
0.66047
0.64971
0.68004
0.66536
0.64481
0.67025
0.68004
0.67515
0.65558
0.69472
0.67025
0.70059
0.66536
0.68493
0.69472
0.68004
0.70059
0.67025
0.68004
0.66047
0.68004
0.66047
0.68493
0.67515
0.67025
0.65558
0.67025
0.66047
0.72505
0.73483
0.72994
0.77984
0.77006
0.82485
0.83562
0.81507
0.73483
0.67025
0.65558
0.63503
0.5998
0.58023
0.5998
0.59002
0.58023
0.61057
0.62035
0.68982
0.81018
0.78571
0.71526
0.64971
0.66047
0.55479
0.53523
0.54501
0.51957
0.53033
0.50489
0.5499
0.49511
0.49022
0.52544
0.49511
0.54012
0.51957
0.52544
0.50978
0.50978
0.50489
0.51468
0.50489
0.51957
0.53033
0.51468
0.52544
0.51957
0.55479
0.56458
0.5499
0.57534
0.57045
0.55479
0.61057
0.59002
0.61546
0.59002
0.58513
0.61546
0.61057
0.62524
0.59491
0.56458
0.61546
0.59002
0.63503
0.63992
0.5998
0.61057
0.5998
0.62035
0.64481
0.62035
0.67515
0.75049
0.78571
0.81018
0.79061
0.77006
0.75538
0.78571
0.52544
0.24462
0.16438
0
0
0
0
0.2593
0.68982
0.8454
0.92074
0.77495
0.41487
0.27006
0.43542
0.55969
0.63503
0.64481
0.54012
0.5998
0.63014
0.63992
0.67515
0.79061
0.86497
1.001
1.001
1.001
1.001
0.8454
0.67515
0.57045
0.56458
0.5998
0.63014
0.63014
0.62524
0.62035
0.63014
0.62524
0.63014
0.63014
0.63992
0.5998
0.59002
0.57534
0.59491
0.55969
0.55969
0.53033
0.54012
0.51957
0.51468
0.51957
0.50978
0.51468
0.53033
0.52544
0.53523
0.54501
0.51957
0.54501
0.54012
0.5499
0.53523
0.54012
0.53523
0.5998
0.59491
0.61057
0.64971
0.68004
0.73483
0.7456
0.71037
0.62035
0.56458
0.51957
0.50489
0.50489
0.48043
0.47456
0.49511
0.48043
0.52544
0.48532
0.58513
0.72016
0.72505
0.5998
0.50978
0.5
0.46477
0.46967
0.49022
0.49022
0.49022
0.50489
0.51468
0.50489
0.50978
0.5
0.50489
0.50978
0.50489
0.51468
0.51468
0.53033
0.53523
0.5499
0.55479
0.54012
0.55479
0.58513
0.59002
0.57534
0.58513
0.61057
0.6047
0.58513
0.61057
0.5998
0.62524
0.62524
0.63014
0.61057
0.63014
0.62524
0.64971
0.67515
0.68493
0.68004
0.68982
0.70059
0.68004
0.71526
0.68493
0.67025
0.71037
0.68004
0.68982
0.67515
0.68493
0.70548
0.72505
0.76517
0.77495
0.78571
0.77495
0.81996
0.84051
0.83562
0.80039
0.7456
0.68493
0.62524
0.59002
0.59002
0.61057
0.61546
0.59002
0.58513
0.63014
0.59491
0.7955
0.8454
0.80039
0.70059
0.67025
0.62035
0.58023
0.54501
0.58513
0.57045
0.55969
0.5499
0.51957
0.54012
0.55479
0.54501
0.56458
0.58023
0.55969
0.59491
0.61057
0.5499
0.5499
0.54012
0.52544
0.51468
0.53523
0.52544
0.5499
0.56458
0.58023
0.56458
0.5998
0.61057
0.63014
0.64971
0.63503
0.62035
0.63014
0.61057
0.62035
0.62524
0.59491
0.63014
0.64971
0.63014
0.62524
0.63503
0.59491
0.58513
0.6047
0.5499
0.57534
0.55969
0.61546
0.64481
0.64971
0.63014
0.63992
0.72505
0.71526
0.81507
0.81996
0.75049
0.66047
0.63014
0.59002
0.61057
0.58023
0.55969
0.56458
0.54501
0.59491
0.59002
0.63503
0.80528
0.84051
0.75049
0.69472
0.67515
0.69472
0.54501
0.51468
0.5
0.53033
0.48043
0.46967
0.49022
0.5
0.49022
0.51468
0.50489
0.5
0.50489
0.49022
0.52544
0.5499
0.53523
0.5499
0.55969
0.52544
0.53033
0.5
0.47456
0.5
0.46967
0.38943
0.36008
0.38943
0.44031
0.47456
0.54501
0.55969
0.58513
0.63014
0.65558
0.68493
0.70548
0.68982
0.68004
0.66047
0.63992
0.65558
0.61546
0.59491
0.5998
0.61546
0.63014
0.65558
0.64481
0.72016
0.73483
0.7456
0.75538
0.76517
0.80039
0.81018
0.75049
0.68004
0.59491
0.52544
0.46967
0.46477
0.4501
0.47456
0.48532
0.50489
0.53033
0.54012
0.66047
0.76027
0.70059
0.62524
0.53523
0.51468
0.45988
0.4501
0.45988
0.42466
0.45499
0.45988
0.44521
0.45499
0.44031
0.43542
0.45988
0.43542
0.45499
0.44521
0.4501
0.45499
0.4501
0.44521
0.45499
0.48532
0.48043
0.53523
0.51957
0.52544
0.51468
0.53033
0.50978
0.51957
0.49022
0.51468
0.50978
0.54012
0.54012
0.5499
0.53523
0.55479
0.55969
0.59491
0.55969
0.58513
0.56458
0.59491
0.58513
0.61057
0.62524
0.58513
0.59491
0.55969
0.59491
0.59002
0.63014
0.6047
0.67025
0.65558
0.75049
0.72016
0.76517
0.70548
0.66047
0.61057
0.6047
0.58513
0.61057
0.57534
0.6047
0.58513
0.61546
0.61057
0.72016
0.83562
0.84051
0.76027
0.68982
0.67025
0.57534
0.56458
0.58023
0.59002
0.57045
0.59002
0.57534
0.58513
0.56458
0.58023
0.53523
0.57045
0.54501
0.56458
0.55479
0.5998
0.58513
0.58513
0.57534
0.58023
0.59491
0.58023
0.61057
0.6047
0.62524
0.59491
0.63014
0.5998
0.59491
0.62035
0.63014
0.62524
0.63014
0.63014
0.64481
0.62035
0.64481
0.64971
0.65558
0.62035
0.64481
0.63992
0.63992
0.62524
0.61546
0.63503
0.61546
0.63503
0.61057
0.65558
0.68004
0.68493
0.68004
0.72994
0.7456
0.7955
0.7955
0.7456
0.68004
0.63014
0.59002
0.57045
0.53033
0.55969
0.53523
0.54501
0.54012
0.59002
0.61546
0.76517
0.80039
0.73483
0.64971
0.68982
0.63014
0.51468
0.53033
0.49511
0.5
0.49022
0.51957
0.53033
0.49511
0.48532
0.53033
0.5
0.53523
0.50978
0.51468
0.50978
0.50489
0.51957
0.53523
0.49022
0.53033
0.51468
0.54012
0.53033
0.5499
0.51468
0.57045
0.59002
0.58023
0.59002
0.6047
0.61057
0.58023
0.5998
0.58513
0.61546
0.59491
0.62035
0.59491
0.61546
0.59491
0.62524
0.57045
0.62035
0.63014
0.59002
0.61057
0.59002
0.58513
0.63503
0.65558
0.68004
0.70059
0.69472
0.72994
0.76027
0.77006
0.70059
0.63992
0.57534
0.55479
0.51468
0.52544
0.51468
0.51468
0.50978
0.53523
0.54501
0.53523
0.73483
0.75538
0.67515
0.58023
0.57534
0.52544
0.4501
0.47456
0.48043
0.46477
0.47456
0.46477
0.47456
0.49022
0.49511
0.5
0.47456
0.48532
0.47456
0.48532
0.48532
0.51468
0.50978
0.51468
0.50489
0.51468
0.54501
0.55969
0.5499
0.56458
0.55969
0.57045
0.58023
0.55969
0.55479
0.58023
0.59002
0.61057
0.61057
0.61546
0.61057
0.63014
0.63014
0.61546
0.61057
0.63014
0.6047
0.62524
0.61057
0.63014
0.63014
0.61546
0.64481
0.68493
0.70059
0.70059
0.7407
0.75538
0.80039
0.83562
0.7955
0.72994
0.63014
0.61057
0.58023
0.54501
0.53523
0.52544
0.5499
0.55969
0.58513
0.55969
0.68004
0.80528
0.81996
0.68982
0.63014
0.59491
0.52544
0.53523
0.54012
0.53523
0.54501
0.54501
0.53523
0.55969
0.54012
0.53523
0.55969
0.58023
0.54501
0.5499
0.53523
0.53033
0.5499
0.55969
0.55969
0.55479
0.59491
0.6047
0.58513
0.63503
0.68982
0.72016
0.76027
0.72505
0.66047
0.63014
0.62524
0.64971
0.63503
0.66047
0.65558
0.53033
0.49022
0.57534
0.61057
0.56458
0.5499
0.6047
0.63992
0.62524
0.63014
0.62524
0.5998
0.57534
0.6047
0.58513
0.58023
0.62524
0.64971
0.63992
0.69472
0.72505
0.78571
0.81507
0.80039
0.71526
0.64971
0.57534
0.54012
0.50489
0.50489
0.53523
0.54012
0.49511
0.56458
0.54501
0.63503
0.79061
0.7955
0.69472
0.63503
0.67025
0.57045
0.53033
0.50489
0.49511
0.51468
0.51468
0.52544
0.53523
0.53523
0.56458
0.58023
0.62035
0.62524
0.58023
0.51468
0.52544
0.51468
0.52544
0.54501
0.55969
0.51468
0.52544
0.50978
0.53523
0.55479
0.55479
0.58023
0.5998
0.55479
0.61546
0.63014
0.58023
0.57534
0.62524
0.65558
0.63014
0.6047
0.66047
0.62035
0.58513
0.66047
0.6047
0.62035
0.5998
0.57534
0.62035
0.5998
0.6047
0.61546
0.66047
0.61546
0.67025
0.72994
0.7407
0.76027
0.76517
0.72505
0.72505
0.62524
0.5998
0.54501
0.52544
0.54012
0.53523
0.54012
0.53523
0.5998
0.58023
0.66047
0.79061
0.80039
0.67515
0.66047
0.67515
0.55969
0.53033
0.51468
0.52544
0.51468
0.52544
0.5
0.48532
0.47456
0.49022
0.46477
0.48043
0.49022
0.45499
0.44521
0.49022
0.45988
0.47456
0.46477
0.49022
0.48043
0.50489
0.5
0.51468
0.50978
0.50489
0.52544
0.51957
0.54012
0.54012
0.53523
0.54501
0.53523
0.54012
0.53523
0.53033
0.55969
0.54501
0.55969
0.54501
0.55479
0.5499
0.55969
0.55479
0.57045
0.55479
0.58023
0.5998
0.61057
0.63014
0.61057
0.63503
0.67025
0.70059
0.72505
0.66047
0.5998
0.58023
0.53523
0.5
0.50489
0.48532
0.46967
0.46477
0.49022
0.48532
0.5
0.64481
0.71526
0.67515
0.57534
0.51468
0.48532
0.44521
0.46967
0.48043
0.44521
0.45988
0.46477
0.48532
0.46967
0.48043
0.46477
0.48532
0.5
0.50978
0.52544
0.50978
0.51468
0.51957
0.53033
0.51468
0.54501
0.55479
0.55969
0.5499
0.56458
0.58023
0.58513
0.59491
0.61057
0.5998
0.61057
0.5998
0.6047
0.61546
0.61057
0.63014
0.62524
0.63992
0.63503
0.63503
0.63503
0.61057
0.61057
0.62035
0.61546
0.62524
0.61057
0.62035
0.61057
0.59002
0.62524
0.66536
0.67025
0.66047
0.71526
0.71526
0.75538
0.77495
0.7456
0.68493
0.61546
0.58513
0.57045
0.54012
0.5499
0.5499
0.53523
0.55479
0.58513
0.58023
0.72016
0.7955
0.75538
0.68982
0.61057
0.63992
0.54012
0.51468
0.51468
0.53033
0.50489
0.51468
0.53033
0.51468
0.51957
0.53523
0.54012
0.51957
0.51468
0.53033
0.53523
0.51468
0.51957
0.5
0.48043
0.50489
0.49511
0.53523
0.51957
0.53523
0.53033
0.58513
0.55479
0.5499
0.57534
0.59491
0.58513
0.6047
0.58513
0.5998
0.62524
0.61057
0.63503
0.63014
0.61057
0.65558
0.64481
0.62524
0.61057
0.62035
0.64481
0.62524
0.63503
0.62524
0.67515
0.69472
0.70059
0.70059
0.7456
0.75538
0.78571
0.77495
0.73483
0.64481
0.61546
0.5499
0.59002
0.5499
0.54012
0.56458
0.54012
0.59002
0.5998
0.62035
0.7955
0.82485
0.72505
0.63014
0.64971
0.58513
0.53523
0.54501
0.50489
0.5
0.51468
0.48043
0.53033
0.5
0.50978
0.49511
0.52544
0.51468
0.54501
0.50978
0.50489
0.52544
0.50978
0.50489
0.53033
0.52544
0.54501
0.53523
0.55479
0.59002
0.58513
0.56458
0.58513
0.59491
0.62524
0.61546
0.64971
0.6047
0.5998
0.61057
0.63503
0.61057
0.63014
0.63014
0.65558
0.64481
0.63014
0.61057
0.61546
0.62524
0.66047
0.63014
0.61546
0.70548
0.71526
0.70059
0.72994
0.7456
0.76517
0.78571
0.76517
0.70059
0.63014
0.58513
0.55969
0.53523
0.54012
0.54501
0.53523
0.54012
0.56458
0.57534
0.56458
0.77984
0.72016
0.65558
0.57045
0.5499
0.46967
0.42955
0.44521
0.4501
0.42955
0.42466
0.43542
0.43542
0.44031
0.42955
0.45499
0.45988
0.45499
0.47456
0.48043
0.49022
0.48043
0.46967
0.50978
0.50489
0.51468
0.53523
0.53033
0.53523
0.54012
0.5499
0.55479
0.53523
0.54501
0.55969
0.55479
0.5499
0.57534
0.58513
0.58023
0.6047
0.58513
0.61057
0.62035
0.62035
0.63014
0.62524
0.64971
0.63503
0.62524
0.63014
0.62524
0.67515
0.66536
0.65558
0.68982
0.70059
0.73483
0.75538
0.7407
0.66536
0.63014
0.59002
0.55969
0.57045
0.55969
0.58513
0.53523
0.5499
0.59491
0.56458
0.63503
0.78571
0.76027
0.68004
0.61057
0.5998
0.50978
0.48532
0.51468
0.5
0.50489
0.49511
0.51468
0.49511
0.50489
0.5
0.53523
0.53033
0.51468
0.51468
0.50978
0.50978
0.5
0.51957
0.51468
0.55479
0.54501
0.56458
0.56458
0.55479
0.57534
0.58513
0.5998
0.58513
0.62524
0.59491
0.58513
0.63014
0.63014
0.5998
0.64971
0.63992
0.63014
0.61546
0.63503
0.63992
0.64481
0.6047
0.63014
0.63014
0.64481
0.6047
0.63014
0.61057
0.64481
0.63014
0.63503
0.66536
0.67515
0.66047
0.68982
0.72016
0.76517
0.79061
0.72505
0.67515
0.58023
0.56458
0.55969
0.54501
0.54501
0.5499
0.53033
0.55479
0.56458
0.6047
0.75538
0.81018
0.71037
0.62524
0.64481
0.57045
0.51468
0.53033
0.48532
0.50978
0.51468
0.48532
0.45499
0.46477
0.47456
0.5
0.49022
0.51468
0.52544
0.5
0.51468
0.49511
0.49022
0.5
0.49022
0.50489
0.47456
0.50978
0.52544
0.51468
0.50489
0.52544
0.53033
0.53523
0.54012
0.55969
0.57045
0.57534
0.58023
0.58023
0.56458
0.58513
0.63014
0.61057
0.62524
0.6047
0.63992
0.61546
0.62524
0.6047
0.61057
0.6047
0.66047
0.71037
0.70059
0.69472
0.71526
0.75049
0.77006
0.7955
0.80039
0.72505
0.67025
0.63503
0.58023
0.58513
0.58023
0.5499
0.54501
0.58513
0.59491
0.58513
0.70059
0.77984
0.73483
0.64481
0.59491
0.62524
0.50978
0.47456
0.49511
0.50978
0.49022
0.5
0.46967
0.48043
0.49022
0.50489
0.49511
0.51468
0.49511
0.48532
0.47456
0.49022
0.48043
0.51957
0.51468
0.50978
0.50489
0.53033
0.54012
0.52544
0.55479
0.58023
0.59491
0.57534
0.56458
0.6047
0.59002
0.61057
0.59491
0.58513
0.5998
0.62524
0.6047
0.5998
0.63503
0.61057
0.6047
0.62524
0.61057
0.59491
0.61546
0.62524
0.5998
0.63992
0.66536
0.68004
0.68493
0.72016
0.7456
0.77984
0.75538
0.70548
0.63992
0.62035
0.58023
0.56458
0.55479
0.53523
0.53033
0.51957
0.55479
0.58023
0.54501
0.76027
0.77006
0.68493
0.6047
0.62524
0.58513
0.49022
0.5
0.49022
0.47456
0.49022
0.46967
0.49511
0.47456
0.46477
0.48532
0.45988
0.5
0.46477
0.48043
0.45988
0.5
0.49022
0.57534
0.53523
0.55479
0.5998
0.56458
0.63503
0.62035
0.66047
0.65558
0.68493
0.7407
0.71526
0.81507
0.77984
0.81996
0.80039
0.71526
0.85519
0.92074
0.8454
0.76027
0.72505
0.90998
0.89041
1.001
0.89041
1
0.88552
0.96086
0.88063
1.001
0.98532
1.001
0.96086
1.001
1.001
0.98043
1
0.8454
0.85029
0.81996
0.72994
0.8454
0.78571
0.70548
0.92074
0.75049
0.79061
0.67515
0.96086
1
0.9002
0.85519
0.76027
0.84051
0.72505
0.64481
0.77984
0.5998
0.70548
0.62035
0.7456
0.57534
0.78571
0.50489
0.80528
0.65558
0.51957
0.63992
0.58513
0.66536
0.62524
0.63992
0.56458
0.68004
0.6047
0.64481
0.58023
0.71037
0.71037
0.56458
0.6047
0.67025
0.58023
0.78571
0.67025
0.64481
0.61057
0.70548
0.61546
0.68493
0.70548
0.65558
0.72994
0.65558
0.63503
0.57045
0.61546
0.67515
0.63503
0.62035
0.66047
0.68982
0.63014
0.62524
0.84051
0.7955
0.71526
0.63503
0.71037
0.63992
0.58513
0.5998
0.49022
0.46477
0.52544
0.58023
0.55479
0.57045
0.51957
0.48043
0.59002
0.68004
0.70059
0.49022
0.54012
0.59491
0.41977
0.3953
0.36986
0.49511
0.4002
0.36986
0.35029
0.46477
0.49511
0.36497
0.40998
0.33953
0.4002
0.41487
0.27495
0.41487
0.47456
0.42955
0.40998
0.44521
0.4002
0.43542
0.3953
0.48043
0.55479
0.5
0.45988
0.6047
0.59491
0.63992
0.44031
0.53033
0.61546
0.64481
0.68004
0.5998
0.54501
0.45499
0.51957
0.61546
0.52544
0.47456
0.53033
0.53523
0.59002
0.50489
0.57534
0.62035
0.57534
0.54012
0.64481
0.68493
0.68004
0.76517
0.63992
0.62035
0.54012
0.46967
0.42955
0.48532
0.40509
0.49022
0.49511
0.45499
0.46967
0.48043
0.61057
0.69472
0.67025
0.43542
0.36986
0.71037
0.79061
0.59002
0.63992
0.72505
0.66536
0.71526
0.67025
0.70548
0.46477
0.65558
0.66047
0.58513
0.53033
0.40998
0.56458
0.64481
0.55479
0.62524
0.45988
0.58023
0.63992
0.57045
0.75538
0.81507
0.51957
0.44031
0.67025
0.59491
0.71037
0.63503
0.81996
0.70059
0.76027
0.68493
0.5998
0.75538
0.68982
0.72994
0.77984
0.63503
0.6047
0.69472
0.67515
0.7407
0.67515
0.68493
0.62035
0.68982
0.83562
0.84051
0.58023
0.81996
0.77984
0.83562
0.72016
0.75538
0.66047
0.61546
0.52544
0.49511
0.53033
0.58023
0.55969
0.51957
0.52544
0.51468
0.47456
0.70548
0.62035
0.55969
0.57534
0.53523
0.54501
0.40998
0.3953
0.36008
0.4002
0.4501
0.38943
0.36497
0.38943
0.42466
0.32975
0.30528
0.36497
0.43542
0.35519
0.32485
0.35029
0.29452
0.32975
0.33953
0.32485
0.35519
0.31018
0.36497
0.36008
0.3953
0.41977
0.36986
0.35029
0.40998
0.40509
0.46477
0.46477
0.48043
0.40998
0.42466
0.41977
0.44521
0.40509
0.44031
0.3953
0.47456
0.44521
0.42466
0.41977
0.43542
0.42955
0.45988
0.51957
0.55479
0.50489
0.54012
0.57534
0.61057
0.62524
0.54501
0.50489
0.4501
0.42955
0.3953
0.37476
0.37476
0.38454
0.40509
0.43542
0.42955
0.41487
0.55969
0.63503
0.58023
0.52544
0.48043
0.50978
0.40998
0.3953
0.40509
0.38943
0.37965
0.3953
0.40509
0.3953
0.40998
0.3953
0.41977
0.40998
0.40998
0.4002
0.41977
0.41487
0.40998
0.41977
0.42466
0.44031
0.41977
0.44031
0.44521
0.45499
0.48532
0.50489
0.49511
0.49022
0.51957
0.53033
0.53033
0.53523
0.53523
0.54012
0.55479
0.57045
0.55969
0.55969
0.5499
0.54501
0.57045
0.57045
0.56458
0.55969
0.5499
0.58513
0.56458
0.61057
0.63014
0.61546
0.65558
0.66536
0.69472
0.7407
0.72505
0.65558
0.5998
0.55479
0.53033
0.53033
0.51468
0.50978
0.51468
0.5
0.53033
0.53523
0.52544
0.76027
0.77495
0.71037
0.61057
0.55479
0.50489
0.49022
0.51468
0.5
0.49022
0.49511
0.49511
0.50978
0.51468
0.5
0.50978
0.49511
0.49022
0.50489
0.51468
0.49022
0.5
0.51468
0.49022
0.50489
0.53033
0.51957
0.53033
0.53523
0.53033
0.54012
0.55479
0.5499
0.54012
0.5499
0.54501
0.55479
0.56458
0.57045
0.58513
0.57045
0.58023
0.57534
0.5998
0.58513
0.61057
0.59491
0.61546
0.59491
0.61546
0.5998
0.61057
0.59002
0.62035
0.63992
0.66536
0.67515
0.68004
0.70059
0.71037
0.75049
0.77006
0.72505
0.67025
0.61546
0.58023
0.5499
0.5499
0.54501
0.5499
0.53523
0.56458
0.5998
0.57045
0.72505
0.78571
0.77006
0.69472
0.63014
0.58513
0.53033
0.52544
0.53523
0.53033
0.51468
0.52544
0.53033
0.53523
0.54501
0.53033
0.55969
0.5499
0.5499
0.54012
0.53523
0.55479
0.54501
0.54012
0.54012
0.55969
0.58023
0.58513
0.59002
0.5998
0.58513
0.61546
0.63992
0.63014
0.63503
0.61546
0.64481
0.63014
0.64971
0.65558
0.66536
0.66047
0.67025
0.65558
0.66536
0.68493
0.67025
0.65558
0.66536
0.68004
0.68004
0.67025
0.68004
0.67025
0.66047
0.68004
0.72505
0.72016
0.75049
0.7955
0.77984
0.80528
0.81507
0.77984
0.72994
0.66047
0.61057
0.61546
0.58513
0.58023
0.6047
0.58513
0.5998
0.62035
0.59491
0.75538
0.83562
0.75538
0.68004
0.63014
0.63503
0.55479
0.54012
0.53523
0.53523
0.53523
0.53033
0.52544
0.53523
0.53033
0.53033
0.53523
0.53033
0.52544
0.53033
0.52544
0.53523
0.52544
0.53523
0.52544
0.54012
0.54012
0.54501
0.53523
0.56458
0.57045
0.58513
0.58513
0.5998
0.61057
0.61546
0.61057
0.63014
0.61057
0.63014
0.64481
0.64971
0.64971
0.64481
0.64481
0.65558
0.66536
0.65558
0.65558
0.65558
0.65558
0.65558
0.64971
0.64971
0.64481
0.68982
0.70548
0.71526
0.7456
0.75049
0.77495
0.80039
0.79061
0.72016
0.67025
0.62524
0.5998
0.57534
0.57045
0.58023
0.55969
0.58023
0.6047
0.61057
0.67025
0.81996
0.77495
0.68493
0.6047
0.61546
0.54012
0.53033
0.53033
0.53523
0.51468
0.51957
0.51957
0.52544
0.53033
0.53033
0.53523
0.52544
0.51468
0.51957
0.53033
0.51468
0.52544
0.51468
0.53033
0.52544
0.53523
0.53523
0.5499
0.53523
0.55479
0.55969
0.58023
0.57045
0.57045
0.55479
0.57534
0.58023
0.59491
0.56458
0.58023
0.59491
0.58513
0.5998
0.57534
0.58513
0.58513
0.58513
0.59491
0.58513
0.58513
0.59002
0.57534
0.57534
0.58023
0.63014
0.64971
0.64481
0.67515
0.68982
0.72505
0.77006
0.75538
0.69472
0.63503
0.59002
0.56458
0.5499
0.54012
0.54501
0.55969
0.55479
0.57534
0.58513
0.57534
0.77984
0.80039
0.70059
0.61546
0.56458
0.52544
0.5
0.51468
0.49022
0.50489
0.49511
0.5
0.5
0.51468
0.5
0.51468
0.50978
0.51468
0.51957
0.51468
0.51468
0.50978
0.51957
0.51468
0.52544
0.51957
0.53523
0.54501
0.55969
0.55479
0.57534
0.57045
0.58023
0.57045
0.5998
0.58513
0.58513
0.59491
0.5998
0.58513
0.61057
0.61057
0.6047
0.62035
0.5998
0.61057
0.6047
0.59002
0.58513
0.5998
0.58023
0.59491
0.58513
0.59002
0.57045
0.58513
0.61057
0.64481
0.63992
0.66047
0.67515
0.70059
0.73483
0.75538
0.72994
0.68004
0.61057
0.55969
0.53523
0.52544
0.51468
0.53523
0.51957
0.51468
0.55479
0.54501
0.67515
0.76517
0.73483
0.64481
0.55479
0.53523
0.49022
0.48532
0.50978
0.49022
0.50489
0.5
0.50978
0.51468
0.50489
0.51957
0.53033
0.51468
0.52544
0.51957
0.52544
0.53033
0.52544
0.53523
0.53523
0.5499
0.54501
0.55969
0.56458
0.58513
0.58023
0.5998
0.58513
0.61057
0.59491
0.6047
0.59491
0.61057
0.61057
0.62524
0.63014
0.62035
0.63503
0.63014
0.64481
0.63014
0.64481
0.63992
0.64481
0.63014
0.64481
0.63503
0.64481
0.63503
0.64481
0.63992
0.64971
0.67515
0.70059
0.68982
0.72505
0.72994
0.76517
0.78571
0.77495
0.71526
0.66047
0.6047
0.57045
0.54501
0.54012
0.5499
0.53523
0.5499
0.57045
0.58513
0.55969
0.77006
0.7456
0.67025
0.58023
0.58513
0.50978
0.5
0.49022
0.5
0.48532
0.49022
0.49022
0.48532
0.5
0.49022
0.50489
0.49511
0.50978
0.5
0.51468
0.5
0.51468
0.50978
0.51468
0.51468
0.52544
0.51957
0.54012
0.53523
0.55969
0.54012
0.55969
0.55969
0.58513
0.56458
0.57534
0.58023
0.58023
0.58513
0.6047
0.59491
0.6047
0.61057
0.59491
0.58513
0.58023
0.59491
0.59002
0.58023
0.57534
0.59491
0.57534
0.58513
0.56458
0.58513
0.61057
0.64971
0.63992
0.66047
0.67515
0.70548
0.75538
0.75049
0.68493
0.63503
0.57534
0.54501
0.51468
0.50978
0.53033
0.51468
0.51957
0.51468
0.55479
0.54012
0.75049
0.77006
0.70059
0.59491
0.56458
0.50978
0.49022
0.49511
0.50978
0.49511
0.50489
0.50978
0.50489
0.51468
0.51957
0.50978
0.51957
0.52544
0.51468
0.50978
0.51468
0.52544
0.51468
0.53523
0.51957
0.54501
0.54501
0.55969
0.55479
0.58023
0.58513
0.5998
0.59002
0.59491
0.59002
0.61057
0.61057
0.62035
0.63014
0.62524
0.63992
0.63503
0.64971
0.64481
0.65558
0.64971
0.65558
0.64481
0.66047
0.64971
0.65558
0.66047
0.67025
0.66047
0.67025
0.65558
0.68004
0.71526
0.72994
0.72016
0.76517
0.77006
0.81018
0.82485
0.7955
0.72505
0.67025
0.62035
0.59491
0.57045
0.57045
0.58023
0.57045
0.59002
0.62035
0.61546
0.7456
0.83072
0.79061
0.70059
0.64481
0.67025
0.54012
0.53523
0.51957
0.51957
0.50978
0.51957
0.51468
0.53523
0.51957
0.53033
0.51468
0.51957
0.51468
0.51468
0.50978
0.51468
0.50978
0.50489
0.51957
0.51468
0.53033
0.52544
0.54012
0.53523
0.55969
0.55479
0.57045
0.55969
0.57534
0.56458
0.59002
0.58513
0.5998
0.58513
0.5998
0.6047
0.59002
0.6047
0.59491
0.61057
0.59491
0.6047
0.59491
0.5998
0.58513
0.59002
0.58513
0.58513
0.58513
0.62524
0.65558
0.67025
0.67515
0.71526
0.72994
0.77006
0.76027
0.72016
0.63992
0.6047
0.56458
0.54501
0.52544
0.51957
0.53523
0.52544
0.54501
0.55969
0.57534
0.7456
0.78571
0.68004
0.59491
0.56458
0.57534
0.48043
0.49511
0.48532
0.49022
0.46967
0.49511
0.48043
0.49022
0.49511
0.49022
0.49511
0.5
0.49511
0.50489
0.49022
0.50978
0.51468
0.49022
0.51957
0.50978
0.51468
0.50489
0.53523
0.52544
0.55969
0.5499
0.55969
0.53523
0.54501
0.55969
0.58023
0.56458
0.58023
0.55969
0.58023
0.57534
0.58513
0.5998
0.58023
0.57045
0.58023
0.58513
0.57045
0.58023
0.57045
0.58513
0.57534
0.59002
0.58513
0.63503
0.64971
0.68982
0.68493
0.71037
0.7456
0.76027
0.71037
0.66047
0.59002
0.57534
0.53033
0.52544
0.51957
0.53523
0.51468
0.5499
0.57045
0.55969
0.75049
0.79061
0.72994
0.63014
0.57045
0.53033
0.5
0.5
0.50978
0.49511
0.51468
0.50489
0.51957
0.50489
0.51957
0.51468
0.52544
0.51468
0.53523
0.51468
0.52544
0.53033
0.52544
0.53523
0.52544
0.5499
0.55479
0.56458
0.55969
0.57534
0.57045
0.59002
0.58023
0.61057
0.5998
0.61057
0.6047
0.61546
0.61057
0.63014
0.62035
0.63503
0.63014
0.64481
0.63014
0.63503
0.63992
0.63503
0.64481
0.63503
0.65558
0.63992
0.65558
0.63992
0.64971
0.64481
0.70059
0.71526
0.72994
0.72505
0.77006
0.80039
0.84051
0.80039
0.75049
0.67515
0.63503
0.59491
0.59002
0.55969
0.57534
0.55969
0.58023
0.61057
0.61057
0.69472
0.82485
0.79061
0.71037
0.64481
0.64481
0.54501
0.51468
0.53033
0.50489
0.51468
0.5
0.51468
0.50489
0.51468
0.50489
0.51957
0.50978
0.52544
0.51468
0.51957
0.5
0.51468
0.50978
0.51957
0.52544
0.50978
0.53523
0.53033
0.55969
0.55479
0.58023
0.57534
0.59002
0.58513
0.5998
0.59491
0.61057
0.61057
0.62035
0.61057
0.63014
0.61546
0.63014
0.62035
0.63014
0.62524
0.61546
0.63014
0.61546
0.62524
0.61057
0.62035
0.6047
0.62035
0.64971
0.68493
0.67515
0.71037
0.72016
0.75538
0.77984
0.79061
0.71037
0.66047
0.59002
0.57045
0.54012
0.54501
0.53033
0.53523
0.52544
0.56458
0.5499
0.6047
0.76027
0.75049
0.67025
0.59491
0.58513
0.50489
0.49022
0.48043
0.48532
0.46477
0.48532
0.47456
0.49022
0.48043
0.49511
0.48043
0.49511
0.49022
0.5
0.49022
0.5
0.50489
0.49511
0.49022
0.50489
0.51468
0.52544
0.54012
0.5499
0.55479
0.55969
0.56458
0.5499
0.55969
0.56458
0.58023
0.55969
0.57534
0.57045
0.58513
0.57045
0.58513
0.57045
0.55969
0.55969
0.58023
0.55969
0.56458
0.5499
0.54012
0.56458
0.55479
0.54501
0.57045
0.61057
0.61546
0.63503
0.65558
0.67515
0.70548
0.73483
0.68493
0.62524
0.56458
0.54012
0.50978
0.51468
0.49511
0.5
0.49511
0.51957
0.53523
0.54501
0.68493
0.77006
0.70548
0.62035
0.53033
0.53523
0.48043
0.49511
0.50489
0.49022
0.50489
0.49022
0.51468
0.51468
0.51957
0.51468
0.53523
0.51957
0.54501
0.52544
0.53523
0.53033
0.54501
0.53523
0.55969
0.56458
0.55969
0.58513
0.58023
0.59002
0.58513
0.61057
0.6047
0.61546
0.6047
0.62035
0.61057
0.62524
0.62035
0.63503
0.63014
0.63992
0.63014
0.65558
0.64971
0.65558
0.63992
0.65558
0.63992
0.65558
0.64481
0.65558
0.64481
0.63992
0.65558
0.64481
0.68982
0.70548
0.71526
0.71037
0.76027
0.77984
0.81996
0.80528
0.75538
0.68004
0.63503
0.58513
0.57534
0.55479
0.55969
0.53523
0.55479
0.58513
0.59491
0.64481
0.80528
0.76517
0.71037
0.62035
0.63014
0.53033
0.49511
0.50489
0.49022
0.49022
0.48532
0.5
0.49022
0.5
0.49511
0.50978
0.49511
0.50489
0.49022
0.49511
0.5
0.49511
0.49511
0.5
0.49511
0.50978
0.51957
0.52544
0.54501
0.5499
0.55969
0.55969
0.57534
0.58513
0.5998
0.61057
0.61546
0.62524
0.61057
0.63014
0.61546
0.66047
0.63503
0.70548
0.63992
0.71037
0.63014
0.70059
0.61546
0.67025
0.59002
0.63503
0.56458
0.5499
0.63992
0.5998
0.68004
0.6047
0.69472
0.62524
0.73483
0.63503
0.65558
0.48532
0.50489
0.37965
0.42955
0.35029
0.40998
0.32975
0.41977
0.36497
0.41977
0.4002
0.61057
0.49511
0.46967
0.37476
0.42466
0.27984
0.24462
0.31996
0.22994
0.29941
0.21429
0.28963
0.20939
0.27984
0.21429
0.27006
0.19472
0.2544
0.17515
0.23973
0.1546
0.22505
0.13992
0.21429
0.13992
0.22994
0.15949
0.24951
0.20939
0.26517
0.27006
0.20939
0.27984
0.19961
0.2593
0.17515
0.24462
0.15949
0.22994
0.15949
0.22994
0.15949
0.20939
0.13503
0.19472
0.11448
0.18004
0.09002
0.1546
0.059687
0.094912
0.0097847
0.064579
0.039139
0.10959
0.11448
0.054795
0.13992
0.084149
0.17515
0.11448
0.1546
0.0097847
0.014677
0
0
0
0
0
0
0
0
0
0.059687
0
0
0
0
0
0
0
0
0
0
0
0
0
0
0
0
0
0
0
0
0
0
0
0
0
0
0
0
0
0
0
0
0
0
0
0
0
0
0
0
0
0
0
0.0048924
0
0.019569
0
0.014677
0
0.019569
0
0.029354
0
0.094912
0.069472
0.11937
0.11448
0.16928
0.18493
0.23973
0.2544
0.17515
0.1047
0.064579
0.084149
0.019569
0.064579
0.019569
0.069472
0.029354
0.099804
0.069472
0.13992
0.2593
0.28963
0.13992
0.13503
0.11448
0.12427
0.074364
0.13503
0.1047
0.14481
0.11448
0.14971
0.13503
0.16928
0.18493
0.14481
0.2045
0.15949
0.2045
0.16928
0.22016
0.18493
0.22994
0.20939
0.2593
0.23973
0.30528
0.26517
0.32975
0.30528
0.35519
0.31996
0.37476
0.34442
0.4002
0.37965
0.40998
0.3953
0.42955
0.4501
0.40998
0.45499
0.42955
0.47456
0.42955
0.48532
0.45988
0.49511
0.44521
0.49511
0.46477
0.50489
0.46967
0.51957
0.49022
0.57534
0.55969
0.5998
0.59491
0.66047
0.65558
0.71037
0.71526
0.64481
0.58023
0.5499
0.50489
0.46967
0.51468
0.47456
0.53033
0.5
0.55479
0.51957
0.59491
0.71037
0.73483
0.56458
0.55969
0.52544
0.54501
0.50489
0.55969
0.53033
0.57045
0.54501
0.57534
0.55969
0.58513
0.57534
0.5998
0.61546
0.59002
0.63014
0.61057
0.64481
0.63014
0.66536
0.64971
0.70059
0.68493
0.72016
0.70548
0.75049
0.73483
0.77006
0.76517
0.80039
0.77984
0.81507
0.81018
0.82485
0.83072
0.85519
0.83562
0.85029
0.85519
0.86497
0.87573
0.94031
0.96086
0.98043
0.99511
0.99022
1.001
1
0.97065
0.93542
0.87084
0.80039
0.7955
0.7456
0.85029
0.94031
0.96575
1.001
1.001
1.001
1.001
1.001
1.001
1.001
1.001
1.001
1.001
1.001
1.001
0.11937
0
0
0
0
0
0.36008
0.37965
0.50978
0.67025
0.72994
0.86008
0.91585
0.94031
0.93542
0.94521
0.94031
0.95499
0.96575
0.96086
0.98532
0.97554
0.98532
0.97554
0.99022
0.98043
0.98532
0.98043
1
0.99022
1.001
1.001
1.001
1.001
1.001
1.001
1.001
1.001
1.001
1.001
1.001
1.001
1.001
1.001
1.001
1.001
1.001
1.001
1.001
1.001
1.001
1.001
1.001
1.001
1.001
1.001
1.001
1.001
1.001
1.001
1.001
1.001
1.001
1.001
1.001
1.001
1.001
1.001
1.001
1.001
1.001
0.98043
0.96086
0.9501
0.96086
0.94031
0.96086
0.97554
0.97065
1.001
1.001
1.001
1.001
0.99022
1.001
0.89041
0.88552
0.86008
0.86497
0.85029
0.86497
0.85519
0.86497
0.87084
0.85519
0.87084
0.86008
0.86497
0.85029
0.86497
0.85029
0.86497
0.85029
0.86008
0.85029
0.86497
0.86008
0.89041
0.88063
0.90509
0.90509
0.92074
0.90998
0.92564
0.90998
0.93542
0.93053
0.93542
0.92074
0.94031
0.94521
0.93542
0.9501
0.93542
0.9501
0.93542
0.94521
0.93542
0.94031
0.92074
0.92564
0.9002
0.90998
0.8953
0.94031
0.95499
0.96575
0.97065
1
1.001
1.001
1.001
0.99022
0.92074
0.87084
0.82485
0.81018
0.81507
0.7955
0.81018
0.7955
0.81996
0.82485
0.81996
1.001
1.001
0.92074
0.85029
0.80528
0.77495
0.73483
0.75049
0.72505
0.75049
0.7407
0.75538
0.76027
0.75049
0.77006
0.75049
0.75538
0.7456
0.76517
0.75538
0.76517
0.7407
0.76517
0.75049
0.75538
0.75049
0.78571
0.77006
0.7955
0.7955
0.80528
0.79061
0.80039
0.7955
0.81018
0.7955
0.79061
0.81996
0.80528
0.81996
0.81507
0.84051
0.85029
0.84051
0.83562
0.86008
0.8454
0.87084
0.86008
0.86008
0.8454
0.86008
0.8454
0.86497
0.87084
0.92564
0.93542
0.96086
0.98532
1.001
1.001
1.001
1.001
0.98043
0.90509
0.87084
0.83562
0.81996
0.80039
0.7955
0.81018
0.7955
0.83072
0.82485
0.90998
1.001
1.001
0.94521
0.87573
0.85519
0.77984
0.75538
0.77006
0.75049
0.75538
0.75049
0.77006
0.76517
0.77495
0.77984
0.77006
0.77495
0.76517
0.77006
0.76027
0.77495
0.76027
0.77006
0.75538
0.77495
0.77006
0.79061
0.78571
0.81018
0.80528
0.83072
0.81996
0.83562
0.81996
0.83562
0.83072
0.84051
0.83562
0.8454
0.84051
0.86008
0.86497
0.86008
0.87084
0.86008
0.87573
0.85519
0.86497
0.84051
0.85029
0.83562
0.84051
0.82485
0.84051
0.82485
0.85519
0.88552
0.90998
0.89041
0.94031
0.94031
0.98532
0.99511
0.98043
0.90509
0.85519
0.80039
0.77006
0.7456
0.72994
0.7407
0.72505
0.7407
0.77006
0.76517
0.84051
0.97554
0.92564
0.85519
0.79061
0.82485
0.71037
0.68493
0.66536
0.67025
0.65558
0.67515
0.66536
0.68004
0.68004
0.68493
0.68004
0.68004
0.67515
0.67025
0.66536
0.67025
0.67515
0.66536
0.68004
0.67025
0.68982
0.68493
0.71037
0.70548
0.72994
0.72505
0.75049
0.7456
0.75049
0.7456
0.76027
0.75049
0.76517
0.76027
0.77495
0.77984
0.77006
0.78571
0.77495
0.79061
0.77495
0.78571
0.77006
0.77984
0.76517
0.77006
0.75049
0.75538
0.7407
0.77495
0.7955
0.81507
0.80039
0.8454
0.85029
0.90509
0.8953
0.87084
0.79061
0.7407
0.68493
0.67515
0.65558
0.65558
0.66047
0.64481
0.65558
0.68493
0.68004
0.81507
0.88552
0.81507
0.73483
0.68982
0.71037
0.59491
0.61057
0.58513
0.59002
0.58023
0.59491
0.59002
0.6047
0.59491
0.6047
0.59491
0.59002
0.6047
0.59002
0.5998
0.59002
0.5998
0.59002
0.6047
0.59002
0.61057
0.62524
0.63992
0.63992
0.65558
0.65558
0.67515
0.67025
0.68493
0.67025
0.68493
0.68004
0.69472
0.68982
0.70548
0.71037
0.71526
0.69472
0.70548
0.70059
0.71526
0.70548
0.70059
0.69472
0.68004
0.69472
0.68004
0.68004
0.68982
0.7456
0.7407
0.75049
0.77006
0.80528
0.81996
0.85029
0.81018
0.76027
0.70059
0.64971
0.61057
0.6047
0.59002
0.58513
0.61057
0.5998
0.62035
0.62524
0.68982
0.83072
0.84051
0.72016
0.63014
0.6047
0.55969
0.53523
0.5499
0.54012
0.5499
0.54501
0.55969
0.54501
0.55969
0.54501
0.55969
0.54501
0.55969
0.55479
0.55969
0.5499
0.54501
0.55969
0.55479
0.57534
0.57045
0.59491
0.59002
0.61057
0.61057
0.62524
0.61546
0.62524
0.61546
0.63014
0.62035
0.63992
0.63014
0.64971
0.63503
0.64971
0.65558
0.66536
0.65558
0.67515
0.68004
0.66047
0.68004
0.67025
0.68004
0.67025
0.68004
0.67025
0.68004
0.67025
0.71037
0.72994
0.75049
0.7456
0.7955
0.7955
0.85519
0.8454
0.81018
0.73483
0.68982
0.63992
0.63014
0.61057
0.61546
0.6047
0.61057
0.62035
0.64971
0.64971
0.80528
0.85519
0.77984
0.68982
0.65558
0.67515
0.55479
0.55969
0.54501
0.5499
0.54012
0.55969
0.54501
0.55969
0.54501
0.55969
0.54501
0.55479
0.54012
0.55479
0.53523
0.5499
0.55479
0.54501
0.5499
0.54012
0.55969
0.57045
0.58513
0.58513
0.6047
0.59491
0.61057
0.6047
0.62035
0.61057
0.63014
0.62524
0.63503
0.63014
0.64481
0.64481
0.66047
0.64481
0.66047
0.64971
0.65558
0.64481
0.63992
0.65558
0.63503
0.64971
0.63014
0.64481
0.61546
0.66536
0.69472
0.71526
0.70548
0.75049
0.76027
0.80528
0.79061
0.7456
0.67025
0.63014
0.58023
0.57045
0.5499
0.55479
0.53523
0.54501
0.56458
0.58513
0.5998
0.77006
0.7955
0.71037
0.63503
0.61057
0.62035
0.49022
0.49511
0.48532
0.49022
0.48043
0.49511
0.48532
0.5
0.49022
0.50489
0.49022
0.50489
0.49022
0.5
0.49022
0.5
0.49022
0.50489
0.50978
0.50489
0.51468
0.50978
0.53523
0.53523
0.55479
0.54501
0.56458
0.55969
0.57045
0.56458
0.58513
0.58023
0.59002
0.58513
0.5998
0.58513
0.59491
0.59002
0.6047
0.59491
0.6047
0.5998
0.59491
0.6047
0.59002
0.5998
0.58513
0.59491
0.61057
0.65558
0.66047
0.67515
0.69472
0.71526
0.7407
0.76517
0.72505
0.67515
0.6047
0.57534
0.53033
0.51957
0.51468
0.53033
0.51468
0.53033
0.5499
0.54501
0.63503
0.76517
0.71526
0.63014
0.56458
0.57045
0.49022
0.46477
0.48532
0.45988
0.46967
0.46477
0.48043
0.46967
0.49022
0.47456
0.49022
0.47456
0.49022
0.47456
0.49022
0.48043
0.47456
0.48532
0.48043
0.49511
0.49022
0.51468
0.5
0.53033
0.52544
0.53523
0.54501
0.55969
0.55969
0.57045
0.55479
0.57534
0.56458
0.58513
0.57534
0.59491
0.58513
0.6047
0.59491
0.6047
0.59002
0.5998
0.58513
0.5998
0.6047
0.58023
0.59002
0.57534
0.58513
0.62035
0.65558
0.64481
0.67025
0.69472
0.72016
0.7456
0.75538
0.68982
0.64481
0.57534
0.5499
0.51468
0.51957
0.50489
0.51468
0.50489
0.53033
0.54012
0.53033
0.71526
0.75049
0.68493
0.5998
0.54012
0.50978
0.48043
0.48532
0.49022
0.46477
0.48532
0.48043
0.48532
0.48043
0.49511
0.48043
0.49022
0.48532
0.49511
0.48532
0.49511
0.48532
0.49511
0.49022
0.50489
0.5
0.51468
0.51957
0.53523
0.54501
0.54012
0.55969
0.54501
0.56458
0.55479
0.56458
0.55969
0.58023
0.57534
0.59002
0.58513
0.59491
0.58513
0.61057
0.59491
0.61057
0.5998
0.61057
0.59491
0.59002
0.6047
0.59491
0.5998
0.58513
0.59491
0.58513
0.64481
0.66047
0.66536
0.66047
0.70548
0.72994
0.76517
0.7407
0.70059
0.62524
0.59002
0.54501
0.54012
0.52544
0.53523
0.51468
0.53033
0.54501
0.56458
0.5499
0.75538
0.77006
0.67515
0.58023
0.5499
0.56458
0.47456
0.49022
0.48043
0.49022
0.48043
0.49022
0.48043
0.49511
0.48532
0.49022
0.49022
0.5
0.48532
0.50489
0.48043
0.49022
0.49022
0.50489
0.49022
0.48532
0.50978
0.50489
0.51957
0.50978
0.53523
0.53523
0.53523
0.53523
0.54501
0.54012
0.5499
0.54012
0.55479
0.54501
0.56458
0.55969
0.58023
0.57045
0.58513
0.57045
0.58513
0.57534
0.58513
0.57534
0.58513
0.57534
0.57045
0.58513
0.57045
0.62035
0.64971
0.64481
0.66536
0.68982
0.68004
0.7456
0.72994
0.69472
0.62524
0.58513
0.53523
0.52544
0.51468
0.51957
0.50978
0.51468
0.52544
0.55969
0.5499
0.72505
0.77006
0.70548
0.6047
0.56458
0.58023
0.49022
0.5
0.48532
0.49511
0.48043
0.49511
0.49022
0.50489
0.49511
0.51468
0.50489
0.51468
0.5
0.51468
0.5
0.51468
0.51468
0.51468
0.51468
0.53033
0.53523
0.54501
0.54012
0.55479
0.56458
0.55969
0.58023
0.57045
0.58513
0.57534
0.59002
0.58513
0.6047
0.5998
0.61546
0.61057
0.63014
0.61546
0.63014
0.61057
0.62524
0.61057
0.62524
0.61057
0.61546
0.6047
0.61057
0.61546
0.6047
0.61546
0.61057
0.67515
0.67025
0.68982
0.71526
0.72994
0.76517
0.77984
0.72505
0.67025
0.6047
0.58023
0.53523
0.54012
0.51957
0.53523
0.51468
0.54501
0.55969
0.57045
0.70548
0.77006
0.71037
0.62035
0.58513
0.59491
0.48532
0.47456
0.48532
0.46477
0.47456
0.46477
0.48043
0.46967
0.48043
0.46967
0.49022
0.46967
0.48043
0.46967
0.48043
0.46477
0.48532
0.46967
0.49022
0.48532
0.5
0.49511
0.51468
0.51957
0.51468
0.54501
0.54012
0.55969
0.55479
0.57045
0.57534
0.58513
0.58023
0.5998
0.59491
0.61057
0.6047
0.61546
0.6047
0.62035
0.6047
0.61546
0.5998
0.61057
0.59491
0.59002
0.5998
0.59002
0.6047
0.59491
0.63503
0.66536
0.67025
0.66536
0.71037
0.70548
0.76517
0.7456
0.69472
0.62524
0.58023
0.53523
0.52544
0.50978
0.51468
0.5
0.51468
0.52544
0.54501
0.53523
0.7456
0.75538
0.66047
0.57045
0.5499
0.5
0.45988
0.46477
0.4501
0.45499
0.44521
0.45499
0.44521
0.45988
0.45499
0.46477
0.4501
0.46477
0.4501
0.45988
0.44521
0.45988
0.44521
0.46477
0.45499
0.47456
0.46967
0.49022
0.48532
0.5
0.50978
0.5
0.51957
0.53033
0.53523
0.53523
0.54501
0.54012
0.55969
0.55969
0.57534
0.55969
0.58023
0.57045
0.58513
0.58513
0.59002
0.57534
0.58513
0.57534
0.58513
0.57534
0.58513
0.57534
0.57045
0.5998
0.64481
0.65558
0.64481
0.68982
0.68493
0.73483
0.75049
0.71526
0.65558
0.5998
0.5499
0.53523
0.51468
0.51957
0.50978
0.51468
0.51468
0.55969
0.53523
0.63992
0.76027
0.72994
0.63014
0.55969
0.56458
0.49022
0.49022
0.48043
0.49511
0.48043
0.49022
0.46967
0.49022
0.48043
0.49022
0.48043
0.49511
0.47456
0.49022
0.47456
0.49511
0.47456
0.49511
0.48043
0.5
0.49511
0.51468
0.51468
0.53033
0.53523
0.52544
0.54501
0.53523
0.54501
0.53523
0.55479
0.5499
0.55969
0.56458
0.57534
0.56458
0.58513
0.57534
0.59002
0.58513
0.5998
0.58023
0.59002
0.58023
0.58513
0.57045
0.58513
0.57045
0.58513
0.58513
0.62035
0.64481
0.63992
0.66047
0.68493
0.70059
0.7407
0.75538
0.70059
0.63992
0.57534
0.55479
0.52544
0.52544
0.50978
0.51957
0.50978
0.53033
0.5499
0.54501
0.68982
0.77006
0.70059
0.62035
0.5499
0.55479
0.49022
0.49022
0.5
0.48532
0.49022
0.48532
0.49511
0.49022
0.5
0.49022
0.50489
0.49022
0.50978
0.49511
0.50978
0.49511
0.50978
0.5
0.51468
0.50978
0.53033
0.53523
0.53033
0.5499
0.55969
0.56458
0.55969
0.57534
0.56458
0.58023
0.57045
0.58513
0.58513
0.59491
0.58513
0.61057
0.5998
0.6047
0.59002
0.6047
0.58513
0.5998
0.58513
0.5998
0.58023
0.58513
0.58023
0.58513
0.57534
0.58513
0.59491
0.63992
0.65558
0.63992
0.67515
0.68493
0.72505
0.7407
0.71526
0.65558
0.6047
0.55479
0.53523
0.50978
0.51468
0.50489
0.51468
0.5
0.54501
0.53523
0.61057
0.75538
0.7407
0.64481
0.57045
0.55479
0.49511
0.49022
0.48532
0.49511
0.48043
0.49022
0.48532
0.49511
0.49022
0.5
0.49022
0.5
0.49022
0.5
0.49022
0.50489
0.49022
0.51468
0.5
0.51468
0.51957
0.53033
0.53523
0.5499
0.55479
0.5499
0.57045
0.55969
0.57045
0.55969
0.58023
0.57534
0.59002
0.58513
0.6047
0.59491
0.61057
0.5998
0.61546
0.61057
0.62035
0.6047
0.61546
0.61057
0.61057
0.59491
0.59002
0.5998
0.59002
0.59491
0.61057
0.64971
0.67025
0.66536
0.68982
0.70548
0.73483
0.76517
0.7407
0.68982
0.62035
0.58023
0.54012
0.53523
0.51957
0.53523
0.51957
0.53523
0.54501
0.55969
0.59002
0.77006
0.77495
0.67025
0.58023
0.55479
0.50978
0.49022
0.50489
0.49511
0.50489
0.49511
0.50978
0.49022
0.50978
0.50489
0.51468
0.49511
0.50978
0.50489
0.51468
0.50489
0.51957
0.50978
0.53033
0.51957
0.53523
0.53033
0.54501
0.54012
0.55969
0.56458
0.55479
0.57045
0.55969
0.58023
0.58513
0.59491
0.58513
0.5998
0.59491
0.61057
0.6047
0.62524
0.61546
0.63014
0.62035
0.63014
0.61057
0.62524
0.61057
0.63014
0.61057
0.61546
0.6047
0.61546
0.62035
0.65558
0.68004
0.67515
0.70059
0.72016
0.73483
0.76517
0.77495
0.70548
0.65558
0.59002
0.57534
0.54012
0.54012
0.53033
0.54012
0.53523
0.56458
0.57045
0.55969
0.7456
0.78571
0.70059
0.62035
0.58023
0.5499
0.50489
0.50978
0.51468
0.49511
0.50978
0.5
0.51468
0.50489
0.51468
0.50489
0.51468
0.50489
0.52544
0.51468
0.52544
0.51468
0.52544
0.51468
0.53523
0.52544
0.54012
0.53523
0.55479
0.55969
0.55479
0.57534
0.56458
0.58513
0.57045
0.59002
0.58513
0.6047
0.59491
0.61057
0.6047
0.62524
0.61057
0.62524
0.61057
0.62524
0.61546
0.63014
0.61546
0.61546
0.6047
0.61057
0.5998
0.61057
0.5998
0.61057
0.62035
0.66047
0.67025
0.65558
0.70548
0.72016
0.76027
0.77006
0.73483
0.67025
0.62035
0.56458
0.5499
0.53033
0.53523
0.51957
0.53523
0.52544
0.55969
0.54501
0.67025
0.76517
0.72505
0.63503
0.58023
0.59002
0.49022
0.48043
0.48532
0.47456
0.46967
0.48532
0.46967
0.49022
0.48043
0.49022
0.48532
0.49511
0.49022
0.5
0.49022
0.5
0.49022
0.50489
0.49022
0.51468
0.50489
0.52544
0.53033
0.54501
0.54012
0.55479
0.56458
0.55969
0.58023
0.56458
0.58513
0.58023
0.59491
0.59002
0.61057
0.61057
0.62035
0.61057
0.63014
0.61546
0.63503
0.62035
0.63014
0.61546
0.62524
