0.20117
0.18945
0.20117
0.20117
0.19531
0.18945
0.18555
0.17578
0.20117
0.18945
0.17578
0.17969
0.18945
0.17578
0.17578
0.17969
0.17578
0.17578
0.17578
0.17578
0.16992
0.18555
0.18945
0.17578
0.17969
0.17578
0.16992
0.16992
0.17969
0.19531
0.20117
0.18555
0.17578
0.19531
0.23438
0.26953
0.25977
0.32031
0.3457
0.33984
0.33594
0.29492
0.27539
0.25977
0.20508
0.15039
0.15039
0.14453
0.13086
0.13477
0.13477
0.13086
0.15039
0.25586
0.44531
0.85938
1.2734
0.83008
0.035156
-0.17383
-0.029297
0.080078
0.12109
0.125
0.13086
0.11523
0.10547
0.12109
0.13086
0.13477
0.13086
0.12109
0.15039
0.15625
0.17578
0.18555
0.16602
0.14453
0.15625
0.17969
0.17578
0.17969
0.20117
0.20508
0.21484
0.23438
0.24023
0.26953
0.2793
0.28516
0.2793
0.27539
0.26953
0.24609
0.20508
0.18555
0.17578
0.18945
0.17578
0.16992
0.16992
0.19531
0.16992
0.15039
0.15039
0.16016
0.16992
0.17969
0.18945
0.17578
0.16016
0.16016
0.17578
0.19531
0.18945
0.17578
0.16992
0.16016
0.15625
0.17578
0.18555
0.16602
0.16602
0.16992
0.16016
0.17969
0.17578
0.17578
0.15625
0.16016
0.16992
0.17578
0.17578
0.17578
0.17578
0.17969
0.21094
0.25
0.26563
0.25977
0.33594
0.33594
0.3457
0.31445
0.29102
0.25977
0.23438
0.20117
0.15625
0.125
0.125
0.13086
0.13477
0.125
0.10547
0.099609
0.22461
0.43945
0.83984
1.2344
0.77539
-0.025391
-0.19336
-0.025391
0.080078
0.11133
0.10547
0.10547
0.11523
0.10547
0.11523
0.11133
0.13477
0.13477
0.13477
0.14453
0.15625
0.16992
0.15039
0.15039
0.16602
0.17578
0.16992
0.17969
0.17578
0.18945
0.20117
0.2207
0.24609
0.25586
0.26563
0.30078
0.30469
0.29102
0.26953
0.24609
0.24023
0.21094
0.20508
0.20117
0.21094
0.19531
0.17578
0.18555
0.19531
0.20117
0.16602
0.17578
0.16602
0.18555
0.20117
0.19531
0.18555
0.17969
0.19531
0.17578
0.17578
0.18945
0.17578
0.16016
0.17578
0.18555
0.17969
0.17578
0.16992
0.17969
0.16602
0.16016
0.16992
0.16602
0.17578
0.17578
0.16992
0.16992
0.16602
0.17578
0.19531
0.19531
0.20117
0.17578
0.16992
0.18945
0.2207
0.25586
0.25
0.2793
0.33984
0.36523
0.33594
0.32031
0.29102
0.25977
0.23047
0.18945
0.14063
0.13086
0.13477
0.13086
0.14453
0.14063
0.13086
0.15039
0.26953
0.5
0.91992
1.2051
0.63477
-0.11523
-0.20508
0.041016
0.11133
0.11523
0.125
0.125
0.12109
0.13086
0.15039
0.14063
0.15039
0.13477
0.16016
0.16992
0.15625
0.16602
0.15039
0.15039
0.16602
0.17578
0.17578
0.18555
0.21094
0.22461
0.21094
0.22461
0.24609
0.26563
0.2793
0.29102
0.31055
0.29102
0.26953
0.25586
0.24023
0.21094
0.21484
0.19531
0.18945
0.17969
0.16016
0.16602
0.17969
0.17969
0.17969
0.17969
0.18555
0.19531
0.18945
0.16602
0.15625
0.18555
0.17969
0.16992
0.17578
0.17969
0.16992
0.18555
0.17578
0.15625
0.17578
0.17969
0.15625
0.18555
0.16016
0.15625
0.16602
0.17578
0.16602
0.16602
0.17578
0.19531
0.17578
0.17969
0.17578
0.17969
0.17578
0.17969
0.17578
0.15039
0.16992
0.17969
0.19531
0.19531
0.2207
0.25
0.27539
0.29102
0.31445
0.32422
0.32031
0.33008
0.30078
0.24609
0.21094
0.17578
0.15039
0.14453
0.13477
0.12109
0.11523
0.14453
0.15039
0.125
0.27539
0.54492
1.0352
1.2246
0.49023
-0.12891
-0.18945
0.019531
0.085938
0.11523
0.10547
0.10547
0.125
0.15625
0.13086
0.11523
0.125
0.14063
0.13477
0.14453
0.16992
0.17578
0.15039
0.16602
0.15625
0.15625
0.16992
0.20117
0.18945
0.18945
0.19531
0.21094
0.23438
0.25977
0.26953
0.26563
0.27539
0.28516
0.27539
0.26953
0.23047
0.17969
0.17969
0.17578
0.16992
0.17969
0.18555
0.17578
0.16992
0.18555
0.17578
0.16602
0.16992
0.19531
0.17969
0.17578
0.18555
0.18945
0.16992
0.16992
0.17578
0.18555
0.16016
0.17578
0.17969
0.16602
0.15625
0.18945
0.20117
0.15039
0.15625
0.17578
0.15625
0.16602
0.18555
0.17578
0.15039
0.17578
0.17969
0.20117
0.16016
0.15625
0.16016
0.16992
0.17969
0.17578
0.17969
0.21484
0.25586
0.26953
0.25
0.30078
0.33594
0.34961
0.31055
0.28516
0.26563
0.26563
0.22461
0.16992
0.14453
0.13086
0.13477
0.13086
0.13086
0.125
0.11523
0.23438
0.46094
0.875
1.2793
0.79883
0.015625
-0.18945
-0.025391
0.050781
0.12109
0.13477
0.10547
0.099609
0.11133
0.12109
0.14063
0.16602
0.13477
0.125
0.13086
0.14063
0.15625
0.17578
0.16602
0.15039
0.15039
0.15625
0.16016
0.17969
0.20117
0.20508
0.20117
0.20508
0.23438
0.25586
0.2793
0.30078
0.26953
0.25586
0.24609
0.23047
0.2207
0.18555
0.17578
0.17969
0.16602
0.16992
0.15625
0.16602
0.16602
0.17578
0.16602
0.16016
0.17578
0.18555
0.17578
0.16602
0.17969
0.18945
0.17578
0.18555
0.20117
0.16992
0.15625
0.16016
0.16602
0.16992
0.16016
0.17578
0.16602
0.15625
0.16602
0.16016
0.18945
0.17578
0.14453
0.16602
0.16602
0.16992
0.16602
0.16602
0.16992
0.17578
0.17578
0.20508
0.24023
0.25977
0.24609
0.2793
0.32031
0.33984
0.33008
0.31055
0.26953
0.25
0.22461
0.16992
0.14063
0.13477
0.14063
0.12109
0.12109
0.13086
0.11523
0.17969
0.31445
0.59961
1.0996
1.2441
0.32031
-0.21875
-0.089844
0.044922
0.089844
0.11133
0.12109
0.10547
0.099609
0.12109
0.125
0.11133
0.11523
0.13086
0.14453
0.15625
0.16016
0.13477
0.14453
0.15625
0.16016
0.16992
0.16016
0.14453
0.16992
0.18555
0.21484
0.22461
0.25
0.27539
0.25586
0.26953
0.2793
0.27539
0.26953
0.24609
0.21094
0.18945
0.17578
0.16602
0.16992
0.17578
0.16602
0.15625
0.16602
0.14453
0.15625
0.16016
0.16992
0.16016
0.15625
0.16602
0.17578
0.17969
0.16992
0.18945
0.20117
0.13477
0.14063
0.15625
0.16602
0.16992
0.16016
0.15039
0.16016
0.15039
0.16992
0.17578
0.16992
0.17578
0.15039
0.14453
0.16992
0.17578
0.15625
0.16016
0.15039
0.15039
0.16602
0.18945
0.23438
0.25977
0.23438
0.26563
0.33984
0.33984
0.32422
0.30078
0.26953
0.24609
0.21484
0.16992
0.14063
0.13477
0.10547
0.12109
0.14063
0.13477
0.10547
0.099609
0.24023
0.48047
0.9043
1.2051
0.58008
-0.14453
-0.22461
0.035156
0.10547
0.11523
0.125
0.10547
0.10547
0.125
0.13086
0.11133
0.11523
0.14063
0.14453
0.14453
0.16016
0.15039
0.15039
0.16992
0.19531
0.17969
0.16602
0.17578
0.17969
0.20117
0.22461
0.23438
0.23047
0.25586
0.29102
0.32422
0.33594
0.28516
0.25977
0.24609
0.23047
0.2207
0.19531
0.20117
0.17969
0.16992
0.16602
0.17578
0.17969
0.16992
0.17578
0.17969
0.15625
0.15625
0.16602
0.18555
0.19531
0.18555
0.17969
0.18555
0.17969
0.16602
0.17578
0.16602
0.15625
0.15625
0.16992
0.17969
0.17969
0.18555
0.17969
0.19531
0.16992
0.15039
0.17969
0.18945
0.17578
0.16992
0.16602
0.17969
0.18555
0.17578
0.20508
0.23438
0.27539
0.2793
0.24609
0.30469
0.35938
0.36523
0.33008
0.30469
0.27539
0.24023
0.20117
0.16602
0.13086
0.12109
0.11523
0.13086
0.14063
0.11523
0.11133
0.19531
0.37109
0.69531
1.1543
1.1641
0.16016
-0.18945
-0.039063
0.076172
0.11523
0.10547
0.099609
0.13086
0.13477
0.11523
0.11133
0.12109
0.14063
0.16992
0.17578
0.15625
0.16016
0.16602
0.15625
0.15039
0.17578
0.19531
0.18555
0.18555
0.18555
0.20117
0.20117
0.23438
0.25977
0.29102
0.29492
0.27539
0.28516
0.2793
0.29102
0.27539
0.23047
0.18945
0.17969
0.20508
0.18945
0.16602
0.16992
0.16992
0.17578
0.19531
0.20117
0.17969
0.17578
0.19531
0.18945
0.18555
0.18945
0.19531
0.18555
0.17578
0.17578
0.17969
0.16992
0.16992
0.17969
0.16602
0.15625
0.19531
0.20117
0.17578
0.16602
0.17578
0.16992
0.17578
0.16016
0.15039
0.17969
0.18945
0.20508
0.21094
0.16016
0.18945
0.22461
0.23438
0.24609
0.25977
0.32031
0.3457
0.33008
0.31055
0.28516
0.25977
0.2207
0.17969
0.14453
0.13477
0.13477
0.14453
0.13086
0.12109
0.11133
0.16016
0.29102
0.58008
1.0645
1.2598
0.51563
-0.12891
-0.19336
0.0058594
0.085938
0.099609
0.11523
0.10547
0.10547
0.12109
0.11523
0.11523
0.13477
0.14453
0.13086
0.14063
0.15625
0.16602
0.15625
0.17578
0.15625
0.15039
0.18555
0.16602
0.15039
0.16992
0.18945
0.21484
0.2207
0.24609
0.26563
0.26953
0.27539
0.26953
0.26563
0.23438
0.20508
0.17969
0.18945
0.16992
0.16602
0.17578
0.16992
0.16992
0.15625
0.15625
0.15039
0.16992
0.17578
0.18945
0.16992
0.15625
0.16992
0.17578
0.17969
0.18555
0.18945
0.15039
0.16016
0.16602
0.16602
0.15039
0.15625
0.15039
0.16016
0.17578
0.16016
0.14453
0.15625
0.16602
0.16602
0.17578
0.15625
0.14063
0.16992
0.17969
0.16992
0.17578
0.20117
0.21484
0.24023
0.23438
0.26953
0.3457
0.35547
0.32031
0.33008
0.27539
0.24609
0.20508
0.16016
0.13086
0.125
0.12109
0.125
0.11523
0.10547
0.095703
0.16016
0.32422
0.65039
1.1484
1.2598
0.28516
-0.21484
-0.083984
0.054688
0.089844
0.095703
0.085938
0.099609
0.095703
0.10547
0.095703
0.10547
0.125
0.13086
0.14063
0.13086
0.12109
0.13477
0.13477
0.14063
0.16016
0.17578
0.16992
0.15625
0.16016
0.18945
0.21094
0.2207
0.22461
0.24023
0.27539
0.29102
0.26953
0.2793
0.26563
0.23438
0.21484
0.19531
0.18555
0.17969
0.16992
0.15039
0.15039
0.16016
0.18555
0.18555
0.17578
0.16602
0.17578
0.20117
0.18555
0.15039
0.15625
0.16992
0.17578
0.16992
0.17578
0.17578
0.17578
0.17578
0.17578
0.16016
0.15625
0.16602
0.16016
0.16016
0.16602
0.16602
0.16992
0.16992
0.17578
0.16992
0.16602
0.16992
0.17578
0.17578
0.18555
0.20117
0.2207
0.25977
0.25
0.30469
0.3457
0.33984
0.33594
0.31055
0.25586
0.23438
0.21484
0.16992
0.13086
0.13477
0.13086
0.13086
0.13477
0.13086
0.10547
0.14453
0.32031
0.625
1.1035
1.209
0.25
-0.20898
-0.058594
0.064453
0.12109
0.11523
0.13086
0.125
0.11133
0.13477
0.13086
0.13477
0.14063
0.14453
0.16016
0.15625
0.15039
0.16992
0.17969
0.19531
0.20117
0.20117
0.18555
0.18945
0.21484
0.22461
0.22461
0.24609
0.26953
0.26953
0.28516
0.31445
0.30469
0.30078
0.29102
0.26563
0.23047
0.20117
0.19531
0.19531
0.18555
0.17578
0.17578
0.17578
0.17578
0.17969
0.19531
0.17578
0.18945
0.20117
0.18555
0.20117
0.19531
0.16602
0.17578
0.18945
0.18555
0.18945
0.18555
0.17969
0.18945
0.17969
0.17578
0.17969
0.17578
0.17969
0.17578
0.17578
0.18555
0.17969
0.17969
0.17969
0.17969
0.17578
0.17578
0.20508
0.21484
0.17578
0.16992
0.18555
0.23047
0.25
0.26953
0.26953
0.33594
0.35547
0.3457
0.33984
0.30078
0.25586
0.23438
0.21094
0.17578
0.16016
0.13477
0.13086
0.14063
0.12109
0.11133
0.14063
0.25
0.44922
0.88477
1.2402
0.75391
-0.029297
-0.18359
0.0097656
0.089844
0.125
0.12109
0.125
0.13086
0.12109
0.11523
0.13477
0.14453
0.15039
0.14063
0.14453
0.14063
0.15625
0.16016
0.17578
0.17578
0.17578
0.17578
0.20117
0.2207
0.20508
0.20117
0.2207
0.24609
0.25586
0.25586
0.28516
0.29492
0.2793
0.26953
0.26953
0.25
0.21094
0.20117
0.20117
0.17969
0.16602
0.17578
0.18555
0.17578
0.17578
0.18555
0.17578
0.17969
0.18555
0.19531
0.18945
0.19531
0.20117
0.20117
0.18555
0.19531
0.20117
0.18555
0.18555
0.19531
0.17578
0.16992
0.17578
0.17578
0.16602
0.17969
0.18945
0.17578
0.18555
0.18945
0.16992
0.16016
0.17969
0.18945
0.20117
0.22461
0.19531
0.18555
0.21094
0.23047
0.25586
0.24609
0.30469
0.3457
0.36523
0.3457
0.32031
0.28516
0.26563
0.21484
0.16016
0.15039
0.16016
0.16602
0.12109
0.12109
0.13086
0.14063
0.21484
0.39453
0.7793
1.2695
1
0.17969
-0.18945
-0.058594
0.064453
0.089844
0.10547
0.125
0.13477
0.13086
0.15625
0.14453
0.13086
0.14453
0.15039
0.15625
0.16602
0.17578
0.16992
0.15625
0.16992
0.17578
0.17969
0.18555
0.19531
0.20508
0.20117
0.22461
0.23047
0.25977
0.26563
0.27539
0.28516
0.2793
0.27539
0.25977
0.23438
0.22461
0.20508
0.18945
0.19531
0.18555
0.17578
0.17578
0.18555
0.17969
0.16016
0.16016
0.15039
0.16016
0.16602
0.18555
0.19531
0.16016
0.16992
0.20117
0.18945
0.16992
0.17578
0.17578
0.17969
0.16992
0.16016
0.17578
0.16992
0.16992
0.17578
0.17969
0.16016
0.17578
0.17578
0.16992
0.17578
0.16602
0.15039
0.14453
0.16992
0.20117
0.24023
0.25
0.24609
0.31055
0.33984
0.34961
0.33008
0.30078
0.25586
0.24609
0.22461
0.14063
0.11133
0.11523
0.12109
0.11523
0.11523
0.11133
0.10547
0.24609
0.4707
0.91406
1.2891
0.76563
-0.054688
-0.20898
-0.019531
0.070313
0.099609
0.11133
0.10547
0.10547
0.11523
0.13086
0.13086
0.13086
0.13086
0.13477
0.14453
0.15039
0.13477
0.14453
0.15039
0.17578
0.17969
0.17578
0.17578
0.17969
0.20117
0.22461
0.23047
0.25
0.24609
0.28516
0.29492
0.29492
0.28516
0.27539
0.25586
0.22461
0.19531
0.17578
0.18555
0.17969
0.18555
0.16992
0.17969
0.17578
0.17578
0.17969
0.16992
0.16602
0.17969
0.20117
0.18945
0.17578
0.17969
0.16992
0.17969
0.18555
0.17578
0.19531
0.18945
0.20117
0.17578
0.16992
0.20117
0.19531
0.17578
0.17578
0.16992
0.18945
0.17578
0.16016
0.16602
0.17969
0.21094
0.20117
0.18555
0.21484
0.22461
0.25586
0.27539
0.23438
0.29102
0.34961
0.36523
0.35938
0.32422
0.28516
0.24609
0.22461
0.17578
0.17578
0.16992
0.14453
0.14063
0.16016
0.15039
0.14063
0.20117
0.39453
0.78516
1.2637
1.2891
0.20117
-0.19922
-0.058594
0.064453
0.12109
0.13086
0.13477
0.14453
0.11523
0.11133
0.15039
0.15625
0.15039
0.17578
0.18555
0.17578
0.16992
0.18555
0.20117
0.20117
0.18945
0.20117
0.21484
0.20508
0.20117
0.21484
0.24023
0.26563
0.26953
0.29492
0.29492
0.30469
0.30469
0.29102
0.25586
0.23438
0.22461
0.21094
0.21094
0.19531
0.18945
0.18945
0.18555
0.18555
0.18555
0.18945
0.16992
0.16602
0.17969
0.17969
0.18555
0.18555
0.18945
0.17578
0.16992
0.17578
0.16992
0.16602
0.17578
0.16016
0.15625
0.15625
0.16016
0.15625
0.16992
0.15039
0.15039
0.15039
0.15625
0.15039
0.15039
0.15625
0.16016
0.15039
0.15625
0.18555
0.20117
0.20117
0.2207
0.29102
0.31055
0.29492
0.2793
0.24023
0.22461
0.20508
0.15625
0.125
0.10547
0.099609
0.10547
0.085938
0.10547
0.080078
0.13086
0.29492
0.5957
1.125
1.3086
0.43945
-0.21875
-0.24023
-0.0097656
0.080078
0.089844
0.095703
0.10547
0.10547
0.11523
0.10547
0.11523
0.11133
0.12109
0.125
0.13086
0.14063
0.14063
0.15039
0.15625
0.15039
0.16016
0.15625
0.16992
0.17578
0.18945
0.20508
0.21484
0.24023
0.24609
0.26563
0.26953
0.27539
0.26953
0.25586
0.23438
0.20508
0.18945
0.19531
0.20508
0.16602
0.15039
0.14453
0.12109
0.13086
0.14063
0.14453
0.15039
0.15039
0.15039
0.15625
0.16602
0.16016
0.16602
0.16016
0.15039
0.16602
0.17578
0.15625
0.15039
0.15039
0.15625
0.15039
0.14453
0.16016
0.16602
0.15039
0.15625
0.16992
0.16602
0.16016
0.16016
0.16992
0.17969
0.20508
0.23438
0.22461
0.28516
0.31445
0.32422
0.31445
0.29102
0.25977
0.24023
0.20117
0.15039
0.13477
0.11133
0.10547
0.10547
0.11523
0.11523
0.10547
0.20508
0.41992
0.82422
1.3242
0.96484
0.044922
-0.24023
-0.074219
0.044922
0.10547
0.10547
0.10547
0.11523
0.125
0.11523
0.12109
0.125
0.14063
0.14453
0.14063
0.15039
0.16992
0.15039
0.14453
0.14063
0.15039
0.16992
0.17578
0.17969
0.18945
0.20117
0.2207
0.24609
0.25977
0.27539
0.29492
0.30078
0.29102
0.26953
0.24609
0.22461
0.20117
0.17578
0.17578
0.17578
0.17578
0.18945
0.15039
0.15039
0.15039
0.15625
0.16016
0.19531
0.20117
0.15039
0.13477
0.14453
0.14453
0.15039
0.14453
0.16016
0.15625
0.15039
0.15039
0.15625
0.15039
0.16992
0.16992
0.20117
0.2207
0.23047
0.11523
0.044922
0.085938
0.13477
0.17969
0.17969
0.44922
0.70898
0.25977
0.099609
0.19531
0.30078
0.18555
0.16016
0.18555
0.20508
0.23047
0.2207
0.17578
0.14063
0.13086
0.10547
0.095703
0.24609
0.31055
0.17578
0.15039
0.30469
0.26953
0.49414
1.0352
1.1484
0.18555
-0.26367
-0.099609
0.03125
0.10547
0.16016
0.19531
0.10547
0.24023
0.13086
0.025391
0.041016
0.076172
0.11133
0.125
0.11133
0.14063
0.28516
0.46484
0.26563
0.14453
-0.0039063
0.044922
0.099609
0.16602
0.20117
0.21484
0.22461
0.26563
0.29492
0.30469
0.29102
0.31055
0.31445
0.27539
0.25
0.23047
0.2207
0.25
0.2793
0.20117
0.17969
0.29492
0.35547
0.070313
0.035156
0.10547
0.16016
0.15625
0.17578
0.18555
0.18945
0.18555
0.18555
0.23047
0.25977
0.17969
0.16992
0.58008
0.27539
-0.0097656
0.050781
0.080078
0.14453
0.13477
0.15625
0.17969
0.16992
0.18945
0.17578
0.16992
0.21484
0.26953
0.37109
0.64453
0.46094
0.060547
0.025391
0.18555
0.27539
0.31445
0.30469
0.30078
0.27539
0.25586
0.23047
0.15039
0.14063
0.15039
0.15625
0.14453
0.17578
0.15039
0.13477
0.31445
0.56055
0.93945
1.3301
0.83008
0.03125
-0.29492
-0.11523
0.060547
0.13086
0.25977
0.28516
0.22461
0.16016
0.050781
0.041016
0.095703
0.14063
0.15039
0.16016
0.16602
0.16992
0.20508
0.20117
0.20117
0.18945
0.23047
0.24023
0.21484
0.23438
0.37109
0.375
0.21484
0.25
0.26563
0.29102
0.29492
0.28516
0.29492
0.26953
0.23438
0.22461
0.21094
0.31445
0.38086
0.31445
0.22461
0.044922
0.0097656
0.095703
0.10547
0.13086
0.16016
0.16602
0.14453
0.16602
0.16602
0.15625
0.15039
0.18945
0.17578
0.17969
0.16016
0.17578
0.20117
0.20508
0.16016
0.15039
0.15625
0.15039
0.16602
0.15039
0.15039
0.16016
0.18555
0.24023
0.23438
0.24609
0.30469
0.37109
0.41602
0.43555
0.19531
0.16016
0.15039
0.125
0.099609
0.080078
0.085938
0.095703
0.099609
0.11523
0.089844
0.14063
0.32031
0.66992
1.2539
1.4746
0.40039
-0.29883
-0.36328
-0.054688
0.035156
0.060547
0.060547
0.095703
0.11133
0.11523
0.11133
0.21484
0.25586
0.24609
0.13086
0.0097656
0.054688
0.089844
0.11133
0.13086
0.14453
0.14453
0.15039
0.16016
0.17969
0.17578
0.19531
0.22461
0.24023
0.41602
0.55078
0.36523
0.20117
0.125
0.16016
0.16992
0.16602
0.14453
0.13477
0.15625
0.16016
0.16602
0.15039
0.20508
0.42969
0.44922
0.060547
0.019531
0.076172
0.10547
0.125
0.14063
0.16016
0.17578
0.17578
0.19531
0.22461
0.3457
0.43555
0.29102
0.080078
0
0.025391
0.085938
0.11133
0.13086
0.15625
0.13086
0.16992
0.20117
0.23438
0.25586
0.31445
0.66016
0.68945
0.24023
0.19531
0.16602
0.14063
0.16016
0.14063
0.11133
0.125
0.11133
0.12109
0.13477
0.24609
0.38086
0.4043
0.30469
0.29102
1.0293
1.2949
0.55469
-0.25977
-0.33008
-0.054688
0.050781
0.070313
0.095703
0.18555
0.21484
0.69922
0.99414
0.14453
-0.21875
-0.18359
-0.11914
-0.013672
0.054688
0.064453
0.11133
0.14453
0.13477
0.16992
0.24023
0.58008
0.59961
0.46094
0.21484
0.13086
0.25586
0.0097656
0.095703
0.20117
0.23047
0.24023
0.25
0.22461
0.33984
0.38477
0.7793
0.92383
0.46484
-0.12891
-0.26367
-0.16016
0
0.070313
0.12109
0.15625
0.15039
0.15625
0.14453
0.13477
0.20508
0.52539
0.79492
0.16016
-0.058594
0.041016
-0.048828
0.019531
0.099609
0.13086
0.16602
0.14453
0.125
0.10547
0.14063
0.15625
0.15039
0.26563
0.40039
0.75
0.27539
0.20117
0.12109
0.095703
0.17578
0.21484
0.20508
0.2207
0.16992
0.099609
0.11523
0.095703
0.12109
0.3457
0.37109
0.070313
0.22461
0.060547
0.33008
0.84961
1.3438
0.89453
-0.064453
-0.28906
-0.099609
0.03125
0.095703
0.089844
0.085938
0.089844
0.10547
0.10547
0.16016
0.33594
0.30469
0.14063
-0.0039063
0.044922
0.085938
0.095703
0.14453
0.15039
0.15039
0.16602
0.17578
0.17969
0.19531
0.21094
0.23438
0.26953
0.41992
0.5957
0.625
0.11133
0.14063
0.18555
0.20117
0.21484
0.16992
0.19531
0.17578
0.15625
0.16602
0.15039
0.15625
0.15625
0.16992
0.42969
0.67578
0.18945
-0.070313
-0.039063
0.041016
0.085938
0.12109
0.13477
0.15039
0.15039
0.13477
0.15625
0.15039
0.17578
0.15039
0.15039
0.15625
0.15039
0.17578
0.34961
0.58984
0.27539
0.16992
0.041016
-0.039063
0.064453
0.15625
0.20117
0.27539
0.31055
0.31445
0.2793
0.24023
0.21484
0.22461
0.25586
0.15039
0.33008
0.41016
0
-0.074219
0.044922
0.15039
0.044922
0.13477
0.41992
0.91406
1.3184
0.75977
-0.12891
-0.29492
0.044922
0.16992
0.025391
-0.0097656
0.015625
0.041016
0.064453
0.080078
0.10547
0.12109
0.13086
0.12109
0.125
0.14063
0.15039
0.16016
0.34961
0.56445
0.24609
-0.12891
-0.029297
0.070313
0.13477
0.17578
0.20117
0.2207
0.24023
0.24609
0.26563
0.29492
0.27539
0.25
0.22461
0.19531
0.16992
0.15039
0.14453
0.13477
0.13086
0.11523
0.11133
0.125
0.13086
0.14063
0.13477
0.17969
0.19531
0.125
0.23438
0.24023
0.054688
0.064453
0.099609
0.13086
0.13477
0.14453
0.13477
0.14063
0.15039
0.15039
0.15039
0.15039
0.14453
0.14453
0.15039
0.15039
0.15039
0.16016
0.18945
0.2793
0.21094
0.17578
0.21094
0.20117
0.29102
0.32422
0.31445
0.30078
0.26563
0.23438
0.2207
0.16602
0.13086
0.12109
0.12109
0.12109
0.11133
0.10547
0.10547
0.13086
0.26953
0.53906
1.0195
1.25
0.59961
-0.14844
-0.22852
0.015625
0.041016
0.064453
0.080078
0.099609
0.095703
0.11133
0.10547
0.125
0.125
0.13477
0.14453
0.14063
0.13477
0.15039
0.16602
0.16602
0.17578
0.16016
0.17578
0.18555
0.20117
0.21484
0.22461
0.25
0.25
0.28516
0.30078
0.30469
0.33008
0.30469
0.24609
0.21484
0.20508
0.18555
0.18945
0.17578
0.16016
0.15625
0.15039
0.16992
0.17578
0.18555
0.16992
0.17578
0.16602
0.17578
0.18945
0.19531
0.18555
0.17578
0.16992
0.16602
0.16992
0.16602
0.17578
0.16602
0.16016
0.17578
0.17578
0.17969
0.17578
0.17969
0.16602
0.15039
0.16016
0.15625
0.16602
0.18945
0.2207
0.24609
0.24609
0.2793
0.31445
0.32031
0.31445
0.30078
0.26563
0.23438
0.20117
0.15039
0.14063
0.13086
0.13086
0.13086
0.125
0.12109
0.11523
0.16992
0.32031
0.66992
1.1738
1.2285
0.28516
-0.14453
-0.14844
0.0097656
0.060547
0.080078
0.095703
0.10547
0.11523
0.125
0.13086
0.13477
0.14063
0.13477
0.14063
0.16016
0.25977
0.16992
0.11133
0.14063
0.14453
0.16016
0.17578
0.17969
0.20508
0.20508
0.2207
0.23047
0.25977
0.29492
0.30469
0.29492
0.29102
0.27539
0.25977
0.23438
0.21094
0.19531
0.17969
0.16602
0.16016
0.16602
0.16602
0.17578
0.16992
0.17578
0.18945
0.17969
0.16992
0.17578
0.17969
0.18555
0.17969
0.19531
0.22461
0.18555
0.16602
0.16602
0.15625
0.16016
0.17578
0.16992
0.16016
0.16992
0.16992
0.17578
0.17578
0.17578
0.16992
0.17969
0.17578
0.20508
0.2207
0.25586
0.26563
0.30078
0.33594
0.3457
0.33984
0.33594
0.2793
0.25
0.22461
0.17578
0.14063
0.125
0.13086
0.125
0.13086
0.13086
0.11133
0.14453
0.29102
0.58398
1.0645
1.2637
0.5
-0.1543
-0.23438
0
0.095703
0.12109
0.10547
0.11523
0.13086
0.125
0.13477
0.16602
0.14453
0.13086
0.13086
0.13477
0.15039
0.16602
0.17578
0.17578
0.16992
0.17969
0.18945
0.20117
0.21484
0.22461
0.24609
0.25977
0.2793
0.29492
0.31445
0.32422
0.30469
0.29102
0.26563
0.23438
0.21484
0.20508
0.19531
0.17969
0.17578
0.17578
0.17578
0.17578
0.17578
0.17969
0.16016
0.16602
0.17578
0.17578
0.17578
0.17969
0.18555
0.17578
0.17969
0.18555
0.17578
0.16992
0.17578
0.18555
0.19531
0.17578
0.17578
0.17578
0.17578
0.17578
0.17969
0.17578
0.17578
0.17969
0.16602
0.15625
0.16016
0.18555
0.22461
0.25977
0.26953
0.25977
0.33594
0.33984
0.33008
0.33594
0.27539
0.23438
0.20508
0.16992
0.15039
0.14063
0.13086
0.12109
0.11523
0.13086
0.11523
0.11133
0.26953
0.58984
1.0645
1.2539
0.46484
-0.16992
-0.24023
0.0058594
0.085938
0.11133
0.11523
0.13477
0.12109
0.11523
0.13086
0.14453
0.13086
0.13477
0.15039
0.15625
0.16602
0.16992
0.18555
0.18945
0.18945
0.17969
0.17578
0.20117
0.23438
0.25
0.23047
0.22461
0.25586
0.2793
0.31055
0.31445
0.31445
0.30078
0.2793
0.24023
0.2207
0.21094
0.19531
0.16992
0.16602
0.17578
0.16992
0.17578
0.17969
0.16016
0.15625
0.16992
0.16602
0.17969
0.18945
0.17578
0.17578
0.17578
0.18945
0.17578
0.16992
0.17578
0.17578
0.16016
0.16602
0.17969
0.16992
0.15039
0.16016
0.18555
0.19531
0.14453
0.15039
0.17578
0.17578
0.16992
0.17578
0.18555
0.21094
0.24023
0.24023
0.25977
0.31445
0.33594
0.32031
0.30078
0.29102
0.26563
0.2207
0.16992
0.14453
0.12109
0.10547
0.11133
0.13086
0.13086
0.10547
0.15625
0.30469
0.60547
1.1191
1.3242
0.52539
-0.17383
-0.29883
-0.048828
0.054688
0.080078
0.080078
0.095703
0.10547
0.10547
0.10547
0.11523
0.12109
0.10547
0.099609
0.11523
0.125
0.12109
0.14063
0.13477
0.15039
0.15039
0.15039
0.16602
0.16992
0.17969
0.20508
0.2207
0.21484
0.23047
0.25586
0.26563
0.25977
0.25
0.22461
0.19531
0.17578
0.16602
0.15625
0.14063
0.13086
0.14453
0.13086
0.125
0.13477
0.13477
0.14063
0.14453
0.13086
0.13086
0.14063
0.13477
0.15039
0.15625
0.14063
0.13477
0.13086
0.14453
0.13477
0.14453
0.13086
0.12109
0.13086
0.13477
0.13477
0.15039
0.14063
0.13477
0.14063
0.14063
0.14453
0.14453
0.16992
0.20117
0.2207
0.2207
0.25977
0.31445
0.32031
0.30078
0.28516
0.24609
0.21484
0.17578
0.12109
0.10547
0.10547
0.099609
0.10547
0.095703
0.10547
0.080078
0.14453
0.33984
0.70508
1.2402
1.3301
0.25
-0.27344
-0.13867
0.015625
0.070313
0.080078
0.089844
0.095703
0.089844
0.10547
0.099609
0.099609
0.11133
0.11133
0.125
0.13477
0.14063
0.13477
0.14453
0.15039
0.14453
0.16992
0.17578
0.15625
0.16992
0.18945
0.20117
0.2207
0.24023
0.26953
0.27539
0.28516
0.27539
0.26953
0.25977
0.23047
0.19531
0.18945
0.17578
0.16602
0.15625
0.15039
0.16016
0.17578
0.17969
0.16602
0.16602
0.16016
0.16016
0.16992
0.17578
0.16992
0.16992
0.17578
0.16992
0.17578
0.17578
0.17578
0.17578
0.18555
0.15625
0.15625
0.16602
0.16602
0.15039
0.15039
0.16602
0.17578
0.18945
0.17578
0.16602
0.17578
0.18945
0.21484
0.25977
0.26953
0.28516
0.33008
0.33984
0.33008
0.31055
0.27539
0.24023
0.20508
0.17578
0.15625
0.13477
0.12109
0.12109
0.11523
0.11133
0.125
0.15625
0.31445
0.58984
1.0645
1.2598
0.47461
-0.18945
-0.22461
0.025391
0.095703
0.10547
0.10547
0.11523
0.11523
0.12109
0.13086
0.15039
0.13477
0.125
0.13086
0.15039
0.16016
0.16016
0.16602
0.15625
0.16016
0.19531
0.20508
0.18945
0.19531
0.20117
0.21094
0.24609
0.26953
0.29102
0.30469
0.30078
0.31445
0.2793
0.26563
0.23438
0.2207
0.19531
0.17578
0.17578
0.16602
0.16602
0.17578
0.16016
0.16602
0.17578
0.18555
0.18945
0.16992
0.16016
0.16602
0.17578
0.17969
0.18555
0.17969
0.17578
0.16602
0.16992
0.17969
0.17578
0.17578
0.18945
0.18555
0.17578
0.15039
0.16992
0.17578
0.16016
0.17578
0.17578
0.16992
0.17578
0.16016
0.16602
0.17578
0.20117
0.23438
0.25586
0.23438
0.26953
0.33984
0.36523
0.33984
0.30078
0.27539
0.25586
0.2207
0.15625
0.14063
0.13477
0.12109
0.11523
0.11523
0.125
0.11133
0.16016
0.33594
0.67578
1.1699
1.2734
0.34961
-0.16406
-0.18359
0.019531
0.095703
0.10547
0.11133
0.11133
0.10547
0.11523
0.13086
0.125
0.13086
0.14063
0.15625
0.15039
0.15039
0.15625
0.15039
0.16016
0.16602
0.17578
0.19531
0.17969
0.17969
0.21484
0.24609
0.25
0.23047
0.25977
0.29102
0.29492
0.29102
0.26953
0.25977
0.23047
0.22461
0.21094
0.20117
0.17969
0.18555
0.17578
0.17578
0.16992
0.18945
0.17578
0.17969
0.17578
0.16992
0.18945
0.17969
0.18555
0.17578
0.18555
0.19531
0.17578
0.16016
0.17578
0.17578
0.17969
0.18555
0.17578
0.16992
0.15625
0.16602
0.16602
0.15625
0.16992
0.17969
0.17578
0.16992
0.17578
0.16602
0.16016
0.16992
0.17578
0.18555
0.20117
0.23438
0.24609
0.26953
0.32031
0.33008
0.32031
0.31055
0.25977
0.22461
0.19531
0.14453
0.13086
0.11133
0.10547
0.125
0.125
0.11523
0.10547
0.17578
0.36523
0.72461
1.2695
1.3184
0.30078
-0.23438
-0.14844
0
0.064453
0.080078
0.095703
0.099609
0.099609
0.085938
0.099609
0.10547
0.11523
0.12109
0.11523
0.13477
0.14063
0.13086
0.14453
0.15039
0.16602
0.15039
0.16602
0.16016
0.16992
0.18555
0.21094
0.22461
0.23047
0.25
0.25977
0.2793
0.29102
0.26563
0.23438
0.2207
0.18555
0.15625
0.15625
0.15039
0.15625
0.16016
0.15625
0.16602
0.15625
0.14453
0.15039
0.16016
0.15039
0.16016
0.16602
0.16016
0.16016
0.17578
0.17969
0.16602
0.15039
0.15039
0.15039
0.16016
0.15039
0.14453
0.14453
0.16016
0.16992
0.17578
0.15625
0.15039
0.15625
0.15625
0.16016
0.16992
0.17578
0.16992
0.16602
0.17578
0.19531
0.2207
0.24609
0.24023
0.2793
0.33594
0.3457
0.32422
0.29492
0.27539
0.24023
0.20508
0.17578
0.13477
0.125
0.10547
0.10547
0.12109
0.13086
0.12109
0.16602
0.33984
0.67969
1.2148
1.3301
0.30469
-0.23438
-0.10938
0.025391
0.089844
0.099609
0.11133
0.11523
0.12109
0.11133
0.10547
0.11133
0.10547
0.12109
0.13086
0.13477
0.14453
0.16992
0.17578
0.15625
0.16602
0.17578
0.17969
0.17969
0.19531
0.21094
0.2207
0.25
0.26563
0.26953
0.29492
0.30078
0.29492
0.28516
0.26953
0.24609
0.2207
0.19531
0.18945
0.18555
0.17969
0.17578
0.16016
0.16602
0.16992
0.17969
0.17578
0.17578
0.17578
0.16602
0.17578
0.17969
0.17578
0.17969
0.17578
0.16602
0.17578
0.17969
0.16992
0.18555
0.17578
0.17578
0.17578
0.16992
0.16602
0.16016
0.16992
0.17578
0.17969
0.17969
0.17578
0.17578
0.17969
0.18555
0.17578
0.18945
0.20508
0.2207
0.24023
0.25
0.27539
0.33594
0.33984
0.33008
0.32422
0.29102
0.24609
0.22461
0.18555
0.16602
0.15039
0.13086
0.13086
0.13086
0.12109
0.099609
0.095703
0.23047
0.44531
0.85938
1.2539
0.76953
-0.029297
-0.20508
-0.0039063
0.089844
0.12109
0.13086
0.13086
0.13086
0.11133
0.11523
0.12109
0.13477
0.14453
0.15039
0.16602
0.18945
0.16992
0.16992
0.15625
0.17578
0.18555
0.17969
0.20117
0.2207
0.22461
0.22461
0.24023
0.2793
0.29492
0.31445
0.32031
0.30078
0.30078
0.29492
0.26563
0.25
0.23438
0.21094
0.20508
0.21484
0.19531
0.18945
0.19531
0.17969
0.17578
0.18945
0.17969
0.16992
0.18555
0.18945
0.18555
0.17969
0.19531
0.20508
0.21484
0.21094
0.20508
0.21484
0.19531
0.17969
0.18945
0.19531
0.20117
0.20117
0.20117
0.20508
0.21094
0.20117
0.19531
0.20117
0.20117
0.20508
0.19531
0.21094
0.21484
0.19531
0.20117
0.21484
0.20117
0.22461
0.25586
0.26953
0.27539
0.32031
0.36523
0.37109
0.34961
0.35547
0.33008
0.26953
0.23438
0.19531
0.16992
0.15039
0.16016
0.16602
0.17578
0.16992
0.16016
0.20117
0.375
0.71484
1.2246
1.3047
0.40039
-0.13867
-0.16992
0.041016
0.11133
0.14063
0.125
0.12109
0.13477
0.14453
0.15625
0.15039
0.15625
0.16602
0.16992
0.16992
0.17578
0.17578
0.17578
0.18555
0.20117
0.20508
0.18945
0.19531
0.20508
0.2207
0.24023
0.25
0.26953
0.28516
0.29102
0.31445
0.30078
0.29102
0.27539
0.25586
0.2207
0.20117
0.17969
0.17578
0.15625
0.15039
0.17969
0.18945
0.16602
0.15625
0.17578
0.17969
0.17969
0.17578
0.23047
0.25977
0.16602
0.13477
0.13086
0.13477
0.14063
0.15039
0.16992
0.17969
0.23047
0.23438
0.15039
0.14453
0.16016
0.13477
0.14063
0.15039
0.15625
0.15625
0.17969
0.18945
0.16016
0.14063
0.125
0.14453
0.16602
0.17969
0.16992
0.15039
0.17578
0.2207
0.24609
0.23438
0.29102
0.31055
0.32031
0.31445
0.33984
0.30078
0.24609
0.17969
0.11133
0.13086
0.10547
0.10547
0.10547
0.10547
0.095703
0.11523
0.24609
0.51563
0.98438
1.3398
0.75977
-0.070313
-0.24023
-0.044922
0.060547
0.10547
0.099609
0.099609
0.10547
0.10547
0.10547
0.10547
0.11133
0.11523
0.12109
0.13477
0.15039
0.13086
0.14063
0.14453
0.14063
0.15039
0.15039
0.16992
0.17578
0.16992
0.20508
0.2207
0.23047
0.26563
0.26953
0.30078
0.2793
0.24023
0.23438
0.25
0.20117
0.17578
0.16992
0.15625
0.15039
0.16016
0.17969
0.17578
0.14063
0.13477
0.16992
0.17578
0.16992
0.17969
0.17578
0.17578
0.15625
0.15039
0.16016
0.16602
0.16602
0.17578
0.15625
0.16992
0.17578
0.16992
0.21484
0.24023
0.17969
0.11523
0.11133
0.13477
0.15039
0.16992
0.17578
0.16602
0.16992
0.16016
0.16992
0.16602
0.17578
0.16602
0.18945
0.23047
0.24609
0.26953
0.24609
0.28516
0.33008
0.33984
0.32031
0.32422
0.30078
0.27539
0.24609
0.14453
0.13477
0.14063
0.10547
0.089844
0.085938
0.10547
0.12109
0.21094
0.44531
0.86523
1.3047
0.96875
0.085938
-0.24023
-0.09375
0.041016
0.099609
0.10547
0.11133
0.11523
0.12109
0.13086
0.125
0.13086
0.13477
0.13086
0.15039
0.16992
0.15625
0.15039
0.17969
0.18945
0.20117
0.16992
0.16602
0.16016
0.18555
0.18945
0.21094
0.23438
0.25
0.25
0.26953
0.30078
0.30469
0.25977
0.24609
0.22461
0.21094
0.16992
0.16016
0.15039
0.14453
0.15039
0.15039
0.15625
0.15039
0.16602
0.16992
0.16602
0.17578
0.16992
0.17578
0.17578
0.16992
0.17578
0.17969
0.20117
0.21484
0.16992
0.13477
0.16016
0.15625
0.14453
0.16602
0.17578
0.15039
0.15625
0.14063
0.13477
0.15625
0.16016
0.15039
0.16602
0.17578
0.16016
0.15625
0.14453
0.13477
0.15039
0.16016
0.18555
0.2207
0.23438
0.24609
0.30469
0.32031
0.31445
0.31055
0.29102
0.25977
0.21484
0.16016
0.125
0.11133
0.10547
0.10547
0.11133
0.11523
0.099609
0.125
0.26953
0.56445
1.0645
1.3086
0.54492
-0.19336
-0.27344
-0.029297
0.070313
0.085938
0.080078
0.080078
0.095703
0.10547
0.095703
0.089844
0.095703
0.10547
0.11523
0.13086
0.13086
0.13477
0.14453
0.14453
0.13086
0.13477
0.15039
0.15039
0.16602
0.18945
0.20117
0.21094
0.22461
0.25
0.26953
0.26953
0.26953
0.26953
0.25586
0.24609
0.22461
0.21094
0.19531
0.17578
0.17578
0.17578
0.15625
0.14453
0.14063
0.15039
0.15625
0.16602
0.16602
0.15039
0.16016
0.17578
0.15625
0.15039
0.17969
0.18555
0.15039
0.15039
0.15625
0.14453
0.14063
0.16602
0.16992
0.17578
0.16602
0.15039
0.15039
0.15039
0.15039
0.15039
0.16016
0.16602
0.17578
0.16992
0.16016
0.16602
0.17578
0.20117
0.22461
0.23438
0.22461
0.25
0.31055
0.32422
0.32031
0.31445
0.27539
0.24609
0.2207
0.17578
0.15625
0.14453
0.11133
0.10547
0.11523
0.10547
0.10547
0.16016
0.33594
0.65039
1.1738
1.3047
0.3457
-0.22852
-0.12891
0.019531
0.089844
0.11523
0.12109
0.11133
0.10547
0.10547
0.10547
0.12109
0.12109
0.125
0.14063
0.15039
0.15039
0.15625
0.15039
0.16016
0.16602
0.15039
0.16602
0.17578
0.17578
0.19531
0.20117
0.22461
0.24609
0.26563
0.29492
0.31445
0.29492
0.26953
0.25977
0.24023
0.2207
0.18945
0.16992
0.17578
0.16016
0.16016
0.16016
0.17578
0.15625
0.16602
0.17578
0.17969
0.16602
0.16016
0.16016
0.17969
0.19531
0.17578
0.16992
0.17578
0.16992
0.15625
0.15039
0.15039
0.16016
0.16602
0.16016
0.16016
0.15039
0.16016
0.16992
0.16992
0.16016
0.16602
0.16016
0.16992
0.16602
0.16992
0.16992
0.17578
0.16992
0.17578
0.18945
0.19531
0.17969
0.20508
0.24609
0.25977
0.24609
0.31445
0.34961
0.37109
0.31445
0.27539
0.24609
0.23438
0.20117
0.15625
0.14063
0.14453
0.13086
0.13086
0.13086
0.12109
0.15039
0.26563
0.48438
0.88867
1.2188
0.66992
-0.09375
-0.21875
-0.0039063
0.095703
0.12109
0.12109
0.125
0.13086
0.13086
0.13086
0.13086
0.14063
0.15039
0.16016
0.15039
0.15039
0.16016
0.15039
0.17578
0.18945
0.17969
0.19531
0.20117
0.19531
0.21094
0.24023
0.25
0.25
0.26953
0.29102
0.31445
0.32031
0.31445
0.32422
0.30469
0.25977
0.21484
0.20117
0.18945
0.18555
0.20117
0.17578
0.17578
0.18945
0.18555
0.19531
0.20117
0.18945
0.17578
0.17578
0.19531
0.21094
0.20117
0.17578
0.18555
0.20117
0.16992
0.18945
0.21484
0.19531
0.16992
0.17578
0.18555
0.17969
0.17969
0.18555
0.18945
0.20508
0.19531
0.17578
0.17969
0.20117
0.20117
0.19531
0.17969
0.17578
0.18555
0.21484
0.22461
0.24023
0.26563
0.30078
0.35547
0.375
0.33984
0.33008
0.31445
0.27539
0.24023
0.20508
0.16602
0.13477
0.13477
0.13477
0.125
0.13477
0.14063
0.17969
0.30469
0.60938
1.0801
1.2539
0.45508
-0.13867
-0.20898
0.015625
0.12109
0.15039
0.13086
0.11523
0.13086
0.14453
0.15625
0.13086
0.15039
0.16602
0.17969
0.16992
0.17578
0.17969
0.20117
0.18945
0.17578
0.18945
0.20508
0.2207
0.21484
0.22461
0.23438
0.25586
0.26953
0.29492
0.29492
0.30078
0.31445
0.33984
0.30469
0.25586
0.22461
0.21484
0.21094
0.2207
0.19531
0.17578
0.19531
0.20117
0.20508
0.24023
0.21094
0.16602
0.17578
0.20117
0.19531
0.18555
0.20117
0.20117
0.20508
0.20117
0.17578
0.18555
0.18945
0.20117
0.21094
0.17578
0.17578
0.17969
0.18555
0.18945
0.17578
0.17969
0.18945
0.19531
0.21094
0.2207
0.18945
0.17578
0.18555
0.17969
0.20508
0.24023
0.25977
0.25
0.28516
0.3457
0.35938
0.33984
0.32031
0.29492
0.26563
0.23438
0.17969
0.15039
0.13477
0.13086
0.13477
0.14063
0.11523
0.11133
0.18555
0.33594
0.65039
1.1387
1.2852
0.3457
-0.19922
-0.11914
0.019531
0.089844
0.11133
0.10547
0.13086
0.13086
0.13086
0.13477
0.13086
0.13086
0.13477
0.14063
0.13477
0.15625
0.16992
0.16602
0.15625
0.16992
0.19531
0.20508
0.21094
0.21484
0.2207
0.23438
0.24609
0.26953
0.29102
0.31055
0.32422
0.31445
0.28516
0.25977
0.25
0.2207
0.20508
0.19531
0.18555
0.18555
0.18555
0.17578
0.18555
0.19531
0.16016
0.16016
0.15625
0.16602
0.17578
0.17578
0.15625
0.15039
0.15039
0.15625
0.15039
0.15625
0.16602
0.16016
0.16602
0.16992
0.17578
0.15039
0.16016
0.14453
0.14063
0.13477
0.14453
0.14063
0.15039
0.14453
0.16016
0.16992
0.15625
0.16992
0.18555
0.21094
0.24609
0.25586
0.24609
0.32031
0.33984
0.32031
0.31055
0.28516
0.23047
0.20117
0.15625
0.12109
0.10547
0.099609
0.095703
0.10547
0.10547
0.099609
0.125
0.25977
0.5293
0.98438
1.2051
0.4707
-0.20898
-0.25977
0
0.089844
0.11133
0.095703
0.10547
0.11523
0.095703
0.099609
0.11523
0.125
0.12109
0.13477
0.13086
0.13477
0.14453
0.15039
0.16602
0.19531
0.16992
0.15039
0.16016
0.16992
0.19531
0.22461
0.25
0.25977
0.2793
0.31055
0.32031
0.26953
0.24609
0.23438
0.22461
0.20508
0.20117
0.17969
0.16992
0.17578
0.15039
0.14063
0.16992
0.17578
0.13477
0.15039
0.16992
0.16602
0.15625
0.15625
0.16992
0.16016
0.15625
0.16016
0.16992
0.16992
0.16016
0.16602
0.15039
0.14063
0.14453
0.16992
0.15625
0.125
0.13477
0.14063
0.15625
0.16992
0.15625
0.15039
0.15625
0.14063
0.14453
0.15039
0.16992
0.20117
0.21484
0.22461
0.21484
0.24609
0.31445
0.33594
0.31445
0.30078
0.26953
0.23438
0.18945
0.13477
0.125
0.10547
0.095703
0.10547
0.095703
0.095703
0.085938
0.17578
0.33984
0.7207
1.2188
1.2598
0.2207
-0.25391
-0.16406
0
0.089844
0.11523
0.11523
0.099609
0.064453
0.060547
0.085938
0.099609
0.11523
0.125
0.14063
0.15039
0.14063
0.13477
0.15039
0.16016
0.15625
0.15039
0.15625
0.17578
0.20508
0.20117
0.20117
0.23047
0.24609
0.25977
0.27539
0.2793
0.26953
0.25977
0.24609
0.22461
0.19531
0.17578
0.16602
0.16992
0.15625
0.15625
0.15625
0.14453
0.14063
0.14453
0.125
0.14453
0.16992
0.16602
0.14063
0.14063
0.15039
0.15625
0.15039
0.15039
0.15625
0.14063
0.15625
0.15039
0.15039
0.15625
0.15039
0.15039
0.13477
0.13086
0.14063
0.13477
0.14453
0.16016
0.15625
0.15039
0.15039
0.16602
0.17578
0.16602
0.18945
0.23047
0.24023
0.25977
0.29492
0.31445
0.29492
0.28516
0.26563
0.22461
0.17969
0.14063
0.125
0.11133
0.10547
0.10547
0.11133
0.10547
0.095703
0.16016
0.3457
0.73438
1.2695
1.3301
0.15625
-0.28906
-0.13477
0.0058594
0.076172
0.085938
0.080078
0.085938
0.10547
0.11133
0.10547
0.12109
0.13477
0.13477
0.125
0.125
0.12109
0.13477
0.15039
0.15039
0.15039
0.16016
0.15625
0.17969
0.20508
0.21484
0.20117
0.20508
0.22461
0.25977
0.27539
0.29102
0.29492
0.26563
0.25
0.23047
0.20117
0.18555
0.16992
0.16602
0.15039
0.16016
0.17578
0.16016
0.14453
0.14453
0.15039
0.15625
0.16602
0.16602
0.17578
0.17969
0.19531
0.17969
0.16016
0.17578
0.18555
0.16016
0.15625
0.16602
0.17578
0.17969
0.15039
0.15625
0.16992
0.17578
0.15625
0.16992
0.16016
0.15625
0.17578
0.16992
0.17578
0.17578
0.18555
0.20117
0.17578
0.2207
0.25586
0.26953
0.27539
0.33008
0.3457
0.33008
0.32031
0.29102
0.26563
0.24609
0.20117
0.16602
0.15039
0.13477
0.14063
0.14063
0.125
0.11133
0.14453
0.30469
0.61523
1.0938
1.3047
0.43555
-0.22852
-0.24023
0.019531
0.125
0.13477
0.125
0.13086
0.11523
0.13086
0.15039
0.14063
0.12109
0.14453
0.15039
0.15039
0.16992
0.17578
0.18945
0.19531
0.20508
0.2207
0.22461
0.20508
0.2207
0.23047
0.24609
0.26953
0.29492
0.31055
0.33984
0.36523
0.36523
0.35938
0.33008
0.28516
0.26953
0.24023
0.23047
0.24609
0.18945
0.20117
0.20117
0.21094
0.20508
0.21484
0.2207
0.21484
0.20117
0.21484
0.21484
0.2207
0.21094
0.22461
0.23438
0.22461
0.2207
0.22461
0.21484
0.2207
0.21094
0.20117
0.21094
0.21484
0.20508
0.20117
0.19531
0.19531
0.20117
0.18945
0.20117
0.19531
0.18945
0.19531
0.20117
0.18945
0.20117
0.20508
0.18945
0.20117
0.23047
0.26563
0.2793
0.26563
0.31445
0.35938
0.36523
0.33594
0.31055
0.26953
0.25586
0.20508
0.16016
0.15039
0.13477
0.14453
0.15625
0.13477
0.13086
0.15039
0.25
0.46484
0.88867
1.2539
0.74023
-0.058594
-0.19922
-0.013672
0.085938
0.125
0.13086
0.12109
0.13086
0.125
0.13086
0.14063
0.13477
0.14063
0.14453
0.16602
0.16016
0.16602
0.16992
0.17578
0.18555
0.19531
0.17969
0.18945
0.20117
0.21094
0.2207
0.22461
0.24609
0.26563
0.2793
0.29492
0.29492
0.29102
0.26953
0.25977
0.23047
0.21484
0.18945
0.17578
0.16992
0.17969
0.17578
0.16602
0.17578
0.16992
0.17578
0.18555
0.16992
0.16602
0.16602
0.17969
0.17969
0.18555
0.19531
0.18945
0.17578
0.16992
0.17578
0.16992
0.17578
0.17969
0.18945
0.17578
0.16602
0.17578
0.16602
0.16992
0.16016
0.17578
0.16602
0.17578
0.16992
0.15625
0.17578
0.18555
0.18945
0.18555
0.20117
0.23438
0.25977
0.23438
0.27539
0.33984
0.35938
0.33594
0.3457
0.28516
0.25
0.21484
0.16602
0.15039
0.13086
0.13477
0.13086
0.13086
0.13086
0.13086
0.16992
0.31055
0.52539
0.94531
1.1348
0.40039
-0.18359
-0.21484
0
0.070313
0.085938
0.095703
0.080078
0.085938
0.080078
0.095703
0.085938
0.11523
0.14063
0.11523
0.099609
0.14063
0.16602
0.10547
0.099609
0.080078
0.125
0.13477
0.11133
0.12109
0.15039
0.15625
0.20508
0.2207
0.18945
0.25
0.2793
0.23438
0.20508
0.20117
0.19531
0.15625
0.13477
0.11133
0.10547
0.11523
0.14063
0.10547
0.10547
0.12109
0.10547
0.13086
0.095703
0.10547
0.11523
0.13086
0.14063
0.10547
0.099609
0.12109
0.12109
0.12109
0.125
0.13086
0.11523
0.12109
0.11523
0.099609
0.11133
0.13086
0.14063
0.12109
0.13477
0.13086
0.15039
0.16016
0.16992
0.14453
0.15039
0.16602
0.18555
0.2207
0.23438
0.23047
0.29492
0.33594
0.35938
0.33984
0.27539
0.24023
0.21484
0.18555
0.15625
0.17578
0.16992
0.20117
0.26953
0.19531
0.099609
0.080078
0.17969
0.35938
0.70898
1.1445
0.79883
0.050781
-0.17969
0
0.13477
0.24023
0.30469
0.44531
0.30469
0.025391
0.0097656
0.089844
0.12109
0.15625
0.18555
0.19531
0.20117
0.22461
0.25586
0.22461
0.28516
0.35547
0.21484
0.20117
0.21094
0.14453
0.17969
0.2207
0.23438
0.26563
0.33594
0.38086
0.31445
0.30469
0.30469
0.29492
0.32031
0.53516
0.60938
0.37109
0.125
-0.013672
0.03125
0.095703
0.13477
0.16016
0.17578
0.19531
0.19531
0.20117
0.20508
0.20117
0.21094
0.20117
0.20508
0.19531
0.20117
0.19531
0.20117
0.19531
0.21094
0.20117
0.18555
0.18945
0.18555
0.19531
0.20117
0.20117
0.19531
0.18555
0.18555
0.18945
0.20117
0.18945
0.20117
0.24023
0.26563
0.25977
0.2793
0.33594
0.37109
0.34961
0.33008
0.31055
0.28516
0.24609
0.20117
0.16992
0.15039
0.14453
0.14063
0.13086
0.13086
0.14453
0.13086
0.23438
0.43555
0.78906
1.1738
0.73438
-0.035156
-0.19336
-0.019531
0.076172
0.11523
0.11523
0.13086
0.12109
0.13086
0.15625
0.14063
0.13477
0.15039
0.14063
0.14453
0.15039
0.16602
0.17578
0.17578
0.17578
0.16992
0.17578
0.19531
0.20117
0.22461
0.22461
0.23047
0.24609
0.27539
0.29492
0.30469
0.29492
0.29102
0.26953
0.24609
0.23438
0.24609
0.23047
0.14453
0.12109
0.18945
0.14063
0.125
0.14453
0.15625
0.14453
0.15039
0.16016
0.17578
0.16992
0.16602
0.15625
0.16016
0.16992
0.17969
0.16992
0.16016
0.15039
0.15039
0.15039
0.15039
0.15039
0.14453
0.15625
0.16016
0.16016
0.15625
0.16016
0.16602
0.15039
0.16016
0.19531
0.2207
0.23047
0.22461
0.30078
0.32031
0.32422
0.31055
0.27539
0.24023
0.21484
0.16602
0.125
0.11133
0.11133
0.099609
0.10547
0.11133
0.10547
0.099609
0.20117
0.37109
0.74414
1.1797
0.81055
0.015625
-0.24414
-0.070313
0.050781
0.099609
0.10547
0.12109
0.125
0.10547
0.125
0.13086
0.13086
0.13477
0.13086
0.14453
0.15039
0.15039
0.15039
0.16016
0.15625
0.16602
0.17578
0.17578
0.17969
0.20117
0.20117
0.2207
0.24609
0.25977
0.27539
0.29102
0.28516
0.28516
0.26953
0.24023
0.2207
0.20117
0.17969
0.16992
0.16602
0.16602
0.16016
0.16016
0.16602
0.16992
0.16016
0.16992
0.16602
0.17578
0.17578
0.17578
0.17578
0.17578
0.16992
0.17578
0.16992
0.16992
0.17578
0.16602
0.16602
0.16016
0.16992
0.16602
0.16992
0.16602
0.16016
0.16992
0.18945
0.21484
0.24023
0.23438
0.30469
0.33984
0.33984
0.33008
0.30078
0.25
0.22461
0.18945
0.15039
0.13086
0.11523
0.11523
0.11523
0.12109
0.11523
0.11133
0.16016
0.30078
0.58984
1.0547
1.1836
0.26563
-0.24414
-0.12891
0.035156
0.099609
0.12109
0.125
0.11523
0.125
0.13086
0.14063
0.15039
0.15039
0.15625
0.16016
0.16602
0.16992
0.17578
0.16992
0.17578
0.17969
0.18945
0.20117
0.21094
0.22461
0.23047
0.24023
0.25
0.26953
0.29102
0.31055
0.31445
0.29492
0.2793
0.26563
0.24609
0.2207
0.20117
0.19531
0.18945
0.18555
0.18555
0.18945
0.19531
0.20117
0.19531
0.18945
0.20117
0.20117
0.20508
0.19531
0.19531
0.19531
0.19531
0.20117
0.18945
0.18555
0.19531
0.18945
0.18945
0.18945
0.18945
0.19531
0.17969
0.17578
0.19531
0.2207
0.24023
0.26953
0.27539
0.30469
0.3457
0.35547
0.33984
0.31055
0.26953
0.24609
0.20508
0.15625
0.13477
0.13086
0.13477
0.13086
0.13086
0.13086
0.12109
0.16992
0.31445
0.61523
1.0801
1.1992
0.2207
-0.22852
-0.083984
0.044922
0.11133
0.13086
0.12109
0.125
0.14063
0.13086
0.13086
0.13477
0.14453
0.15039
0.15625
0.15625
0.15039
0.16992
0.17969
0.18555
0.17578
0.18555
0.18945
0.20508
0.21484
0.22461
0.23438
0.25
0.26953
0.29102
0.31055
0.31445
0.31055
0.31445
0.29492
0.23047
0.20117
0.18945
0.18555
0.17969
0.18555
0.17969
0.17578
0.18555
0.19531
0.17969
0.17578
0.18555
0.18945
0.17969
0.17969
0.20117
0.18945
0.17578
0.19531
0.20117
0.19531
0.18555
0.18555
0.20117
0.17578
0.16016
0.16992
0.17578
0.20508
0.23047
0.25977
0.24609
0.25586
0.32031
0.33594
0.33984
0.33984
0.30469
0.25586
0.22461
0.17578
0.15625
0.14453
0.15039
0.12109
0.11523
0.12109
0.125
0.14063
0.24609
0.45508
0.86914
1.25
0.76953
0.0097656
-0.18945
-0.013672
0.076172
0.11133
0.12109
0.12109
0.125
0.13477
0.14453
0.13477
0.15039
0.13477
0.15039
0.16016
0.16602
0.16602
0.16016
0.17578
0.17969
0.18945
0.20117
0.20117
0.20508
0.2207
0.23047
0.24609
0.24609
0.27539
0.31055
0.31445
0.29492
0.29492
0.27539
0.25586
0.24023
0.2207
0.21484
0.20117
0.17578
0.17578
0.17969
0.17578
0.17578
0.17578
0.18555
0.19531
0.19531
0.18555
0.17578
0.17578
0.17969
0.17969
0.17578
0.16602
0.16602
0.16992
0.17578
0.17969
0.17578
0.16602
0.15039
0.15625
0.15625
0.15625
0.15039
0.16016
0.17578
0.20117
0.23438
0.24609
0.22461
0.30078
0.32422
0.31445
0.29492
0.25977
0.22461
0.20508
0.15039
0.11523
0.11133
0.10547
0.10547
0.10547
0.11133
0.089844
0.125
0.26563
0.56055
1.0488
1.2695
0.48047
-0.18945
-0.24023
-0.0097656
0.070313
0.085938
0.085938
0.085938
0.099609
0.099609
0.099609
0.11523
0.125
0.12109
0.125
0.13086
0.13086
0.13086
0.14063
0.14453
0.15625
0.16016
0.16602
0.17578
0.18555
0.20117
0.20117
0.2207
0.24609
0.26953
0.2793
0.29492
0.27539
0.26563
0.24023
0.2207
0.20117
0.17969
0.17578
0.16602
0.15625
0.16016
0.16602
0.17578
0.16602
0.16016
0.16016
0.17578
0.17578
0.17969
0.17578
0.17969
0.18555
0.16602
0.16992
0.17578
0.17578
0.17578
0.17578
0.16992
0.16016
0.16992
0.17578
0.16602
0.16992
0.16016
0.16016
0.15625
0.16992
0.16602
0.16992
0.16992
0.17969
0.21484
0.25586
0.25977
0.24609
0.32031
0.3457
0.33008
0.31055
0.26953
0.24023
0.21484
0.16992
0.13086
0.11523
0.125
0.125
0.125
0.13086
0.10547
0.12109
0.25586
0.5
0.96875
1.2188
0.53516
-0.18945
-0.24414
0.0097656
0.095703
0.11523
0.11133
0.10547
0.11523
0.12109
0.11133
0.13086
0.13477
0.14063
0.13477
0.14063
0.14453
0.15039
0.16016
0.16016
0.16992
0.17578
0.16992
0.17578
0.19531
0.20117
0.21094
0.22461
0.25977
0.28516
0.30078
0.29492
0.29102
0.29102
0.26563
0.24023
0.21484
0.20117
0.17578
0.17578
0.16992
0.16992
0.16992
0.17578
0.17578
0.17578
0.16992
0.16602
0.17578
0.17578
0.17578
0.17969
0.17969
0.17578
0.17969
0.17578
0.17578
0.17578
0.17969
0.17969
0.17578
0.16016
0.16016
0.17578
0.16992
0.17578
0.17969
0.18555
0.16016
0.16602
0.16992
0.17578
0.17969
0.17578
0.17969
0.18555
0.17578
0.16992
0.17969
0.18945
0.18945
0.19531
0.16992
0.16602
0.17578
0.18945
0.19531
0.18945
0.17578
0.17969
0.20117
0.21094
0.19531
0.17578
0.18945
0.23047
0.26563
0.25977
0.29102
0.3457
0.36523
0.33594
0.33008
0.30078
0.25586
0.23438
0.20508
0.15625
0.14453
0.13477
0.14063
0.13086
0.125
0.13477
0.21484
0.39453
0.75
1.25
1.0195
0.2207
-0.21875
-0.089844
0.044922
0.095703
0.11133
0.125
0.11523
0.11523
0.11133
0.12109
0.125
0.13477
0.14453
0.14063
0.15039
0.15039
0.15625
0.15039
0.16016
0.17578
0.17969
0.16992
0.17969
0.18945
0.18945
0.20117
0.2207
0.24609
0.26953
0.26953
0.2793
0.29102
0.2793
0.27539
0.24609
0.23047
0.21094
0.20508
0.20508
0.18555
0.17578
0.17969
0.18555
0.18555
0.18555
0.18945
0.18945
0.20117
0.20117
0.18945
0.19531
0.20117
0.19531
0.18945
0.18945
0.18945
0.19531
0.17969
0.17578
0.18555
0.18945
0.17578
0.16992
0.17578
0.17578
0.16992
0.16602
0.17578
0.18555
0.17578
0.16992
0.17578
0.17578
0.16992
0.17578
0.17578
0.17969
0.17578
0.17578
0.18945
0.20117
0.17969
0.17578
0.17969
0.17578
0.17969
0.17578
0.17969
0.17578
0.17578
0.18945
0.17969
0.17578
0.17578
0.20508
0.23047
0.26563
0.25977
0.31445
0.36523
0.34961
0.33984
0.31445
0.26563
0.24609
0.2207
0.17578
0.14063
0.13086
0.13086
0.13086
0.13086
0.13086
0.14453
0.25977
0.48438
0.93555
1.3145
0.78516
-0.044922
-0.20508
-0.025391
0.070313
0.099609
0.099609
0.11133
0.11523
0.11133
0.125
0.125
0.12109
0.12109
0.125
0.13086
0.13086
0.13477
0.15039
0.15625
0.16016
0.16016
0.16992
0.16992
0.17578
0.18945
0.20117
0.21094
0.22461
0.24609
0.26563
0.2793
0.29102
0.26953
0.26563
0.24609
0.22461
0.21094
0.18555
0.17578
0.16992
0.16602
0.16602
0.16992
0.15625
0.16016
0.16016
0.16602
0.16992
0.17578
0.17578
0.17578
0.16016
0.15625
0.16016
0.15039
0.16992
0.17578
0.16992
0.16992
0.17578
0.15625
0.16016
0.16992
0.16602
0.15039
0.15039
0.15625
0.16016
0.16992
0.16016
0.16016
0.16602
0.16016
0.16602
0.16992
0.17578
0.16602
0.16602
0.16602
0.17578
0.16992
0.17578
0.17578
0.17578
0.17578
0.17969
0.17578
0.16992
0.16016
0.16602
0.17578
0.16992
0.16992
0.17578
0.20508
0.24023
0.26953
0.25977
0.30469
0.35547
0.33594
0.31055
0.29102
0.24609
0.21484
0.20117
0.15625
0.13086
0.125
0.12109
0.13086
0.11133
0.099609
0.095703
0.22461
0.44531
0.85547
1.2402
0.72461
-0.058594
-0.21484
-0.019531
0.070313
0.099609
0.10547
0.10547
0.11133
0.125
0.11523
0.125
0.13086
0.13086
0.13477
0.15039
0.14453
0.14453
0.15625
0.16602
0.16602
0.17578
0.18555
0.18945
0.20117
0.20117
0.21484
0.21094
0.24023
0.25977
0.26953
0.28516
0.29492
0.29102
0.28516
0.26953
0.24023
0.2207
0.21094
0.19531
0.17578
0.16992
0.16992
0.17578
0.17578
0.17969
0.17969
0.17969
0.17578
0.16992
0.16602
0.17578
0.17578
0.17578
0.17969
0.17969
0.16992
0.17578
0.18555
0.17578
0.16602
0.15039
0.16016
0.17578
0.17578
0.17578
0.16602
0.16016
0.16602
0.18555
0.19531
0.16992
0.17578
0.17578
0.16992
0.18555
0.17578
0.17578
0.17578
0.17578
0.17969
0.17578
0.17578
0.16992
0.17578
0.17969
0.18945
0.18555
0.17969
0.16992
0.17578
0.16992
0.17969
0.18555
0.21094
0.25977
0.28516
0.26953
0.30469
0.35547
0.35938
0.32422
0.29492
0.24609
0.22461
0.20508
0.16602
0.14063
0.13477
0.14063
0.13086
0.13086
0.13086
0.15625
0.26953
0.50977
0.94922
1.2285
0.66406
-0.058594
-0.19922
-0.019531
0.076172
0.10547
0.11523
0.10547
0.11523
0.14063
0.13477
0.13477
0.14063
0.14453
0.15039
0.15625
0.16016
0.16602
0.16992
0.17969
0.17578
0.16602
0.16602
0.17578
0.18945
0.20117
0.20508
0.22461
0.23047
0.24609
0.25586
0.2793
0.30469
0.28516
0.25977
0.26953
0.24609
0.22461
0.21484
0.19531
0.16992
0.17578
0.18945
0.17578
0.17578
0.19531
0.20117
0.16992
0.16992
0.19531
0.16992
0.16602
0.16992
0.16992
0.18945
0.17578
0.16016
0.16602
0.17969
0.16992
0.16602
0.16992
0.17578
0.16992
0.17578
0.17578
0.16016
0.15625
0.16992
0.17578
0.15625
0.16602
0.16602
0.15625
0.16602
0.17578
0.16602
0.15625
0.16602
0.17578
0.17578
0.16992
0.17578
0.16016
0.16602
0.17969
0.17578
0.16992
0.16602
0.17969
0.18945
0.17969
0.21094
0.24023
0.25
0.28516
0.33594
0.34961
0.32031
0.31055
0.27539
0.22461
0.2207
0.19531
0.14453
0.125
0.12109
0.13086
0.12109
0.11523
0.10547
0.20508
0.4043
0.78516
1.2793
0.94922
0.16602
-0.23438
-0.10352
0.019531
0.076172
0.089844
0.099609
0.10547
0.10547
0.10547
0.10547
0.10547
0.13086
0.13086
0.13477
0.14063
0.13086
0.13477
0.15039
0.15039
0.14453
0.15039
0.16016
0.16992
0.18945
0.18945
0.20117
0.21094
0.2207
0.24023
0.26563
0.27539
0.26953
0.25977
0.25586
0.24609
0.20508
0.18945
0.17578
0.16602
0.16992
0.16992
0.16016
0.16016
0.16016
0.17578
0.16016
0.15039
0.15625
0.16602
0.16016
0.16016
0.15625
0.16016
0.16016
0.15625
0.16016
0.16016
0.16602
0.15625
0.16602
0.16016
0.15039
0.15039
0.15625
0.16016
0.15039
0.14063
0.15039
0.16602
0.14453
0.13477
0.14453
0.15625
0.15625
0.16016
0.15625
0.16016
0.15039
0.15625
0.16016
0.16016
0.16992
0.17578
0.16602
0.16016
0.16992
0.17578
0.18555
0.21094
0.24023
0.25586
0.24023
0.29492
0.33594
0.32422
0.31055
0.29102
0.24609
0.2207
0.19531
0.15625
0.14063
0.13086
0.13086
0.125
0.13086
0.10547
0.13477
0.25586
0.51563
0.97461
1.2734
0.62891
-0.11914
-0.23438
0
0.076172
0.10547
0.10547
0.11133
0.10547
0.12109
0.11523
0.11523
0.13086
0.13086
0.14063
0.15039
0.15039
0.15039
0.15625
0.16602
0.16016
0.16602
0.16992
0.17578
0.19531
0.20117
0.20508
0.22461
0.24023
0.25
0.2793
0.28516
0.30078
0.29102
0.2793
0.26563
0.24023
0.2207
0.20508
0.20117
0.19531
0.17969
0.17578
0.17578
0.17969
0.18555
0.18555
0.19531
0.19531
0.20117
0.20117
0.19531
0.18555
0.19531
0.19531
0.18945
0.18555
0.19531
0.18945
0.18555
0.20117
0.20117
0.18945
0.18945
0.19531
0.18945
0.18945
0.18945
0.18555
0.17969
0.18555
0.17969
0.18945
0.19531
0.20117
0.19531
0.19531
0.20117
0.20117
0.18945
0.19531
0.18555
0.18555
0.18945
0.18555
0.17578
0.18945
0.20117
0.20117
0.21484
0.25
0.2793
0.27539
0.33008
0.375
0.35938
0.33984
0.32031
0.26953
0.24609
0.22461
0.17969
0.15039
0.15039
0.14453
0.14453
0.15039
0.13086
0.15625
0.25977
0.46484
0.88477
1.2793
0.77539
-0.035156
-0.19922
0
0.095703
0.13086
0.13477
0.13086
0.14063
0.13477
0.13086
0.14453
0.15625
0.16016
0.15625
0.15625
0.16992
0.17578
0.17578
0.17578
0.17578
0.18945
0.18945
0.18945
0.20117
0.21484
0.22461
0.23047
0.24609
0.25586
0.27539
0.29492
0.31445
0.31445
0.29492
0.29102
0.26953
0.24023
0.21484
0.20508
0.20117
0.19531
0.20117
0.18555
0.19531
0.21094
0.21484
0.20117
0.21094
0.21094
0.20508
0.20117
0.20117
0.20117
0.20117
0.21094
0.19531
0.18945
0.18945
0.19531
0.20508
0.20508
0.18945
0.17578
0.17969
0.20117
0.21094
0.19531
0.18945
0.19531
0.20117
0.20117
0.20117
0.20117
0.18945
0.19531
0.18945
0.20508
0.21094
0.20117
0.20117
0.20117
0.18945
0.19531
0.21094
0.20508
0.20117
0.18555
0.20508
0.24609
0.27539
0.28516
0.27539
0.35938
0.37109
0.35938
0.33984
0.29102
0.26563
0.24609
0.21094
0.16602
0.15039
0.15039
0.15039
0.15039
0.14453
0.15039
0.2207
0.4043
0.78906
1.2598
1
0.22461
-0.19336
-0.083984
0.050781
0.10547
0.14453
0.15039
0.13086
0.13477
0.15625
0.15039
0.16992
0.17578
0.15039
0.16992
0.15039
0.16992
0.18555
0.17969
0.18945
0.19531
0.20117
0.20117
0.21094
0.22461
0.20508
0.21484
0.23047
0.25586
0.29102
0.31055
0.30078
0.30469
0.29492
0.29102
0.26953
0.24609
0.2207
0.18945
0.18555
0.19531
0.17969
0.17578
0.17969
0.18555
0.17969
0.20117
0.20117
0.19531
0.18555
0.17969
0.19531
0.20117
0.19531
0.18945
0.18945
0.20117
0.18555
0.17969
0.18555
0.17969
0.17578
0.17578
0.16992
0.17578
0.17578
0.17578
0.17578
0.17578
0.17578
0.17578
0.17969
0.17578
0.15039
0.16602
0.17578
0.17578
0.18555
0.17969
0.17969
0.18555
0.17969
0.17578
0.17969
0.17578
0.17969
0.17969
0.18555
0.21094
0.25977
0.26953
0.24023
0.32031
0.35547
0.33594
0.32422
0.29102
0.25
0.24609
0.21484
0.16602
0.15039
0.13086
0.13086
0.125
0.13086
0.12109
0.18945
0.38086
0.74023
1.25
1.3242
0.30078
-0.21875
-0.10938
0.019531
0.085938
0.10547
0.089844
0.099609
0.11133
0.12109
0.13086
0.125
0.13477
0.14063
0.13477
0.14453
0.15039
0.16602
0.15039
0.15039
0.16602
0.16992
0.17969
0.18945
0.18555
0.19531
0.21094
0.2207
0.24609
0.26563
0.2793
0.29492
0.30078
0.29102
0.25977
0.24609
0.2207
0.20508
0.18945
0.18555
0.17578
0.18555
0.17969
0.17578
0.17578
0.17578
0.17578
0.18555
0.19531
0.19531
0.18555
0.17969
0.17969
0.18945
0.19531
0.20117
0.19531
0.20117
0.17578
0.17578
0.18945
0.19531
0.18555
0.17969
0.16602
0.16602
0.16992
0.17578
0.17578
0.16992
0.17578
0.17578
0.17578
0.17578
0.17969
0.18555
0.16992
0.17578
0.17578
0.17578
0.17969
0.18555
0.17969
0.18945
0.17578
0.18555
0.18945
0.20117
0.23438
0.26953
0.28516
0.26953
0.33008
0.35938
0.33984
0.33008
0.29102
0.24609
0.23047
0.21094
0.17578
0.15039
0.13477
0.13477
0.14063
0.13086
0.125
0.16992
0.33594
0.62891
1.1289
1.2637
0.37109
-0.19922
-0.10938
0.035156
0.099609
0.11523
0.11523
0.11133
0.13086
0.125
0.13086
0.13086
0.13477
0.13477
0.15039
0.15039
0.15039
0.16602
0.17969
0.16992
0.17578
0.17969
0.18555
0.18945
0.21094
0.2207
0.21484
0.22461
0.24609
0.25977
0.28516
0.29492
0.30469
0.29492
0.28516
0.25977
0.22461
0.21094
0.20117
0.19531
0.18945
0.18555
0.17969
0.17578
0.18555
0.18945
0.17578
0.17578
0.17578
0.17578
0.17578
0.17578
0.18555
0.18945
0.17969
0.17578
0.16016
0.16602
0.17578
0.16602
0.16016
0.16016
0.16992
0.17578
0.16992
0.17578
0.17969
0.16992
0.16016
0.16016
0.16992
0.16016
0.16602
0.17578
0.17578
0.17969
0.17578
0.17578
0.18555
0.17578
0.16602
0.16992
0.16602
0.17578
0.17578
0.18555
0.18945
0.17969
0.18555
0.17578
0.18945
0.22461
0.25586
0.26563
0.31055
0.34961
0.33008
0.32031
0.30469
0.25
0.2207
0.19531
0.16016
0.13477
0.125
0.13477
0.13477
0.12109
0.10547
0.12109
0.23047
0.43555
0.83398
1.2344
0.80469
0.015625
-0.20898
-0.054688
0.050781
0.099609
0.11133
0.10547
0.11133
0.11523
0.11523
0.11133
0.11133
0.12109
0.13086
0.13086
0.14063
0.15039
0.14453
0.14453
0.15039
0.16016
0.16602
0.16016
0.17578
0.17578
0.17969
0.20117
0.22461
0.23438
0.24609
0.26563
0.26953
0.26563
0.26953
0.25586
0.24609
0.2207
0.19531
0.18945
0.19531
0.16016
0.15625
0.16602
0.16992
0.16602
0.16016
0.16602
0.16992
0.17578
0.17578
0.18945
0.19531
0.17969
0.17578
0.16992
0.15625
0.16602
0.17578
0.16602
0.17578
0.17578
0.17578
0.17969
0.17578
0.15039
0.15039
0.16602
0.15039
0.16602
0.16992
0.16602
0.15625
0.17969
0.17969
0.16992
0.17578
0.15625
0.16016
0.16602
0.16992
0.16992
0.16992
0.16992
0.17578
0.18555
0.17969
0.17578
0.17969
0.17578
0.16992
0.20117
0.24023
0.25
0.24609
0.32031
0.3457
0.33594
0.32422
0.28516
0.25
0.22461
0.20508
0.13477
0.12109
0.13086
0.14063
0.13477
0.14453
0.13086
0.16016
0.30469
0.625
1.1445
1.2949
0.41992
-0.18945
-0.23438
0
0.076172
0.095703
0.10547
0.095703
0.089844
0.13086
0.13086
0.12109
0.10547
0.125
0.13086
0.13086
0.14063
0.15039
0.15039
0.15039
0.16016
0.16992
0.16992
0.16602
0.16602
0.18555
0.18945
0.19531
0.24023
0.25586
0.26563
0.27539
0.29102
0.26953
0.25977
0.24023
0.2207
0.19531
0.17969
0.17578
0.16992
0.16016
0.16602
0.16016
0.16602
0.16016
0.17578
0.16992
0.15625
0.16992
0.16992
0.16602
0.16016
0.17969
0.16602
0.15625
0.16602
0.16992
0.15625
0.16992
0.16602
0.16016
0.16602
0.15625
0.16016
0.14453
0.14453
0.15625
0.14453
0.15039
0.15625
0.16016
0.16602
0.15625
0.14453
0.13477
0.16016
0.15039
0.14063
0.15039
0.16016
0.15625
0.15625
0.16016
0.16992
0.15039
0.15039
0.16016
0.16992
0.18555
0.21484
0.24023
0.22461
0.25977
0.31445
0.32422
0.32031
0.30078
0.25
0.22461
0.21094
0.17578
0.14063
0.13477
0.13086
0.13086
0.11523
0.099609
0.089844
0.2207
0.41992
0.81445
1.2988
0.94922
0.076172
-0.24414
-0.089844
0.044922
0.080078
0.085938
0.089844
0.085938
0.095703
0.10547
0.099609
0.10547
0.11133
0.12109
0.125
0.13086
0.13086
0.14063
0.15039
0.13477
0.14453
0.15039
0.15625
0.17578
0.17578
0.17969
0.20117
0.2207
0.23047
0.25
0.27539
0.29102
0.2793
0.26953
0.25
0.23047
0.21094
0.18945
0.18555
0.17578
0.16992
0.15625
0.15625
0.15039
0.15039
0.16602
0.15625
0.15039
0.15039
0.15039
0.16016
0.16602
0.16992
0.16016
0.16602
0.16602
0.16016
0.16992
0.17969
0.17969
0.16016
0.16992
0.16602
0.15625
0.16016
0.16016
0.16016
0.15625
0.16602
0.16016
0.16602
0.16016
0.16992
0.15039
0.15625
0.16602
0.16016
0.15625
0.16602
0.16016
0.15625
0.16016
0.16602
0.16992
0.16602
0.16602
0.16992
0.17578
0.16992
0.16992
0.19531
0.23047
0.25586
0.24609
0.30078
0.34961
0.35547
0.32422
0.29492
0.25
0.22461
0.20508
0.16602
0.13086
0.11133
0.11523
0.11523
0.11133
0.11133
0.13477
0.24609
0.48047
0.91992
1.2539
0.68555
-0.099609
-0.23438
-0.029297
0.070313
0.10547
0.10547
0.10547
0.10547
0.099609
0.11523
0.12109
0.11523
0.12109
0.13086
0.13477
0.13477
0.14063
0.14453
0.15039
0.15039
0.16992
0.17578
0.17578
0.19531
0.20117
0.21094
0.22461
0.23438
0.25586
0.26953
0.29102
0.30078
0.30469
0.29102
0.26563
0.24023
0.2207
0.20508
0.20117
0.18945
0.17578
0.16992
0.16992
0.16602
0.16992
0.17969
0.17969
0.17578
0.17578
0.18555
0.18555
0.18555
0.17969
0.20117
0.19531
0.17969
0.17969
0.18555
0.18555
0.18555
0.19531
0.18555
0.18945
0.17578
0.17578
0.16992
0.17578
0.16992
0.17578
0.16602
0.17578
0.18555
0.16602
0.16016
0.16602
0.16016
0.17578
0.17578
0.17578
0.18945
0.18555
0.17578
0.17578
0.17578
0.17578
0.17578
0.17969
0.17969
0.17969
0.18945
0.22461
0.23438
0.26563
0.25977
0.30078
0.33984
0.33594
0.32422
0.30469
0.25
0.23047
0.20508
0.16992
0.14453
0.13477
0.14063
0.14453
0.13477
0.125
0.14453
0.26563
0.49023
0.90039
1.2402
0.70508
-0.048828
-0.20898
-0.025391
0.076172
0.11523
0.11133
0.11523
0.11133
0.12109
0.13086
0.125
0.11523
0.11133
0.13477
0.15625
0.15625
0.15039
0.16992
0.17969
0.17578
0.16602
0.17578
0.18945
0.17969
0.19531
0.21094
0.23047
0.23438
0.25586
0.29102
0.30469
0.29492
0.29492
0.2793
0.26563
0.24023
0.22461
0.20508
0.20117
0.19531
0.20117
0.20117
0.17578
0.17578
0.18945
0.17969
0.17578
0.18945
0.21094
0.20117
0.17578
0.17578
0.19531
0.20508
0.18555
0.18945
0.19531
0.17578
0.18945
0.20117
0.18555
0.18555
0.19531
0.19531
0.20508
0.20117
0.18945
0.17969
0.17578
0.17578
0.18555
0.18945
0.17969
0.18555
0.18945
0.20117
0.19531
0.19531
0.20117
0.18945
0.17578
0.18555
0.17578
0.17578
0.17969
0.20117
0.20117
0.19531
0.19531
0.20508
0.24609
0.28516
0.25977
0.30078
0.34961
0.35938
0.33594
0.31445
0.26953
0.25
0.23047
0.17969
0.15625
0.15039
0.15625
0.14453
0.13086
0.13477
0.17969
0.30469
0.58008
1.0449
1.2637
0.61523
-0.09375
-0.20508
0.015625
0.10547
0.13086
0.11133
0.11523
0.12109
0.13477
0.14063
0.13086
0.15039
0.15039
0.14453
0.14453
0.15039
0.17578
0.17969
0.15039
0.16016
0.17578
0.18555
0.17969
0.18945
0.21094
0.20508
0.22461
0.25977
0.26953
0.26953
0.29492
0.29102
0.2793
0.27539
0.26563
0.25
0.23438
0.21094
0.20117
0.18945
0.18945
0.18945
0.18555
0.17578
0.18555
0.18945
0.18555
0.18555
0.18555
0.19531
0.18945
0.19531
0.20117
0.19531
0.18945
0.18555
0.18555
0.18555
0.18945
0.18555
0.18945
0.18555
0.17969
0.17969
0.17969
0.17578
0.19531
0.17578
0.16602
0.17578
0.17969
0.17969
0.17578
0.18945
0.17969
0.16992
0.17578
0.18945
0.19531
0.18945
0.18555
0.18945
0.18555
0.17969
0.17969
0.19531
0.19531
0.19531
0.18945
0.21094
0.23438
0.28516
0.25977
0.28516
0.34961
0.36523
0.33594
0.33594
0.28516
0.25586
0.2207
0.17969
0.15039
0.14063
0.13086
0.13086
0.125
0.125
0.12109
0.23047
0.45508
0.88477
1.2949
0.82422
-0.013672
-0.21875
-0.039063
0.064453
0.10547
0.095703
0.089844
0.089844
0.099609
0.10547
0.13086
0.13086
0.125
0.12109
0.125
0.14063
0.15039
0.15039
0.15039
0.15039
0.15625
0.16992
0.19531
0.17969
0.17578
0.18945
0.21484
0.23047
0.25
0.25977
0.26953
0.29492
0.2793
0.26953
0.25586
0.23438
0.2207
0.20117
0.19531
0.18555
0.17578
0.17578
0.17578
0.16992
0.18555
0.18945
0.17578
0.16602
0.16992
0.17578
0.17578
0.17969
0.18555
0.20117
0.18945
0.17578
0.17578
0.16992
0.16602
0.16992
0.17578
0.17969
0.16992
0.16992
0.17578
0.16992
0.17969
0.17578
0.16602
0.15625
0.16602
0.16016
0.16992
0.16602
0.16016
0.16602
0.17969
0.17578
0.17578
0.16602
0.16016
0.16992
0.16016
0.16602
0.16602
0.16602
0.17578
0.16602
0.16992
0.16602
0.21094
0.23047
0.25977
0.25
0.30078
0.33984
0.33008
0.31445
0.29102
0.24023
0.22461
0.20117
0.15625
0.125
0.11523
0.12109
0.13086
0.125
0.10547
0.14063
0.26953
0.5293
0.96875
1.1934
0.51563
-0.16016
-0.21875
0
0.085938
0.10547
0.095703
0.080078
0.095703
0.099609
0.11133
0.11133
0.11133
0.12109
0.12109
0.11523
0.125
0.13477
0.13477
0.14063
0.15039
0.16602
0.16992
0.17969
0.17578
0.17578
0.20508
0.22461
0.24023
0.24609
0.25586
0.26953
0.2793
0.28516
0.26953
0.25977
0.22461
0.20508
0.20117
0.18945
0.18555
0.19531
0.16992
0.15039
0.16016
0.16992
0.17578
0.17578
0.17578
0.18945
0.20117
0.17969
0.16992
0.16992
0.17578
0.17969
0.17578
0.18945
0.19531
0.17969
0.17578
0.17578
0.17578
0.16602
0.16016
0.16992
0.17578
0.16602
0.17578
0.18945
0.17578
0.17578
0.16992
0.16602
0.17969
0.18945
0.16992
0.16602
0.19531
0.18945
0.18945
0.19531
0.20508
0.20117
0.19531
0.17969
0.18555
0.20117
0.20508
0.20117
0.21484
0.25586
0.30078
0.26563
0.30078
0.35547
0.36523
0.3457
0.32422
0.27539
0.25586
0.23438
0.19531
0.16016
0.15039
0.14063
0.13477
0.14453
0.14063
0.16602
0.27539
0.46484
0.83984
1.2598
0.81445
0.060547
-0.19336
-0.044922
0.070313
0.10547
0.11523
0.13477
0.14453
0.11523
0.10547
0.12109
0.13086
0.14453
0.14453
0.15039
0.16602
0.15039
0.16016
0.16992
0.17578
0.17578
0.16992
0.17969
0.17578
0.21484
0.22461
0.21094
0.22461
0.23438
0.26563
0.28516
0.29102
0.28516
0.29102
0.26563
0.25
0.24023
0.20508
0.18555
0.18555
0.17969
0.17578
0.17578
0.17578
0.18945
0.20117
0.16992
0.16992
0.17578
0.16602
0.18555
0.17578
0.17578
0.18945
0.18945
0.17578
0.16992
0.17578
0.17969
0.19531
0.20117
0.17578
0.18945
0.16602
0.16992
0.17578
0.17578
0.17969
0.18555
0.17578
0.16016
0.16602
0.17578
0.17969
0.18945
0.16992
0.16602
0.16992
0.16992
0.16992
0.17578
0.16016
0.15625
0.18555
0.17578
0.16602
0.16016
0.16992
0.16602
0.19531
0.21094
0.24023
0.24609
0.26563
0.33984
0.36523
0.31055
0.29492
0.26563
0.24609
0.23047
0.18555
0.13477
0.13086
0.13086
0.12109
0.13086
0.13477
0.125
0.20117
0.37109
0.74023
1.2539
1.2598
0.19531
-0.22852
-0.09375
0.025391
0.089844
0.10547
0.076172
0.076172
0.080078
0.085938
0.10547
0.095703
0.099609
0.11133
0.12109
0.125
0.13477
0.14063
0.125
0.13086
0.14063
0.15039
0.15039
0.15625
0.16016
0.17578
0.18945
0.20508
0.23047
0.26563
0.28516
0.29492
0.26953
0.26953
0.25977
0.23047
0.20117
0.19531
0.18555
0.18945
0.16602
0.16992
0.16992
0.16016
0.15625
0.16992
0.15625
0.16016
0.16016
0.16602
0.17578
0.17578
0.17578
0.17969
0.18945
0.17969
0.17578
0.16602
0.17578
0.17578
0.17578
0.17578
0.17969
0.17578
0.17578
0.17969
0.18555
0.16992
0.16602
0.16016
0.16602
0.16992
0.17969
0.18555
0.17578
0.18555
0.16992
0.16992
0.17969
0.18945
0.17578
0.17969
0.16992
0.17578
0.17969
0.18945
0.17969
0.17969
0.18555
0.20117
0.20508
0.22461
0.26563
0.27539
0.26953
0.34961
0.36523
0.33594
0.32031
0.29102
0.24609
0.23047
0.20117
0.15625
0.15039
0.14453
0.14063
0.13477
0.13086
0.13477
0.20508
0.38477
0.74414
1.2285
1.2598
0.17578
-0.21875
-0.080078
0.050781
0.099609
0.10547
0.099609
0.11523
0.12109
0.11133
0.11523
0.11133
0.12109
0.125
0.13086
0.14063
0.13086
0.14063
0.15039
0.15625
0.15039
0.16016
0.16992
0.17578
0.17969
0.17969
0.20117
0.22461
0.24609
0.25586
0.2793
0.30469
0.28516
0.2793
0.26953
0.24609
0.21484
0.19531
0.17969
0.18555
0.18945
0.17578
0.17578
0.16992
0.17578
0.17578
0.17578
0.17969
0.17578
0.16992
0.17578
0.17578
0.17578
0.18945
0.17969
0.17969
0.17578
0.17578
0.17578
0.17578
0.17969
0.19531
0.16992
0.16992
0.16992
0.16602
0.16992
0.16992
0.16602
0.17578
0.16602
0.16016
0.17578
0.18555
0.17578
0.16602
0.16602
0.16992
0.17969
0.17969
0.18945
0.18945
0.17578
0.15625
0.16602
0.17969
0.19531
0.18555
0.16992
0.16992
0.19531
0.23047
0.26563
0.27539
0.25977
0.32422
0.33984
0.32422
0.31445
0.28516
0.24023
0.2207
0.19531
0.15039
0.14063
0.13086
0.13086
0.125
0.125
0.11523
0.17578
0.32422
0.6543
1.1387
1.2285
0.25
-0.21875
-0.10352
0.03125
0.085938
0.10547
0.099609
0.099609
0.10547
0.11523
0.10547
0.11523
0.12109
0.11523
0.13477
0.14453
0.15039
0.15039
0.14063
0.14063
0.15625
0.16602
0.17578
0.16602
0.18555
0.20117
0.20117
0.21484
0.23438
0.25586
0.26953
0.28516
0.29492
0.29492
0.26953
0.26563
0.2207
0.20117
0.20117
0.17969
0.16992
0.16992
0.16602
0.16602
0.17578
0.18555
0.17969
0.17578
0.17578
0.17578
0.17578
0.17969
0.17578
0.17578
0.16602
0.16992
0.17969
0.19531
0.17578
0.16602
0.16602
0.16016
0.17578
0.17969
0.16992
0.16992
0.17578
0.17969
0.16992
0.17578
0.17578
0.17578
0.17578
0.16602
0.16992
0.17578
0.17578
0.17578
0.16992
0.17578
0.19531
0.18945
0.19531
0.17969
0.17578
0.17969
0.19531
0.18945
0.17578
0.19531
0.22461
0.25586
0.26953
0.26563
0.3457
0.36523
0.34961
0.33984
0.30078
0.25977
0.24023
0.19531
0.14453
0.15039
0.15039
0.14453
0.14063
0.13477
0.15039
0.21094
0.37109
0.75
1.2441
1.2598
0.2207
-0.21484
-0.089844
0.064453
0.12109
0.11133
0.10547
0.10547
0.11133
0.125
0.15039
0.125
0.13086
0.13477
0.14063
0.14063
0.15625
0.16992
0.15625
0.16016
0.16602
0.16992
0.17578
0.17578
0.19531
0.20117
0.19531
0.21094
0.24023
0.26563
0.27539
0.28516
0.2793
0.27539
0.26953
0.25
0.23438
0.21484
0.20117
0.18945
0.19531
0.20117
0.16602
0.16992
0.17969
0.18555
0.18945
0.16992
0.16602
0.18555
0.17578
0.17969
0.20117
0.20508
0.17969
0.17578
0.17578
0.17578
0.16992
0.19531
0.18555
0.17578
0.16992
0.17969
0.18945
0.17969
0.16602
0.15625
0.16602
0.16602
0.17578
0.17578
0.17578
0.16602
0.17578
0.17578
0.17969
0.17578
0.17969
0.18555
0.17578
0.18555
0.20117
0.19531
0.18945
0.17969
0.19531
0.20117
0.18945
0.21094
0.25
0.26563
0.25
0.31445
0.35547
0.34961
0.34961
0.31445
0.25
0.23047
0.2207
0.17578
0.15039
0.14063
0.13086
0.14063
0.14063
0.13086
0.16992
0.31445
0.5957
1.0898
1.2949
0.57422
-0.13867
-0.20898
0
0.076172
0.10547
0.11523
0.125
0.12109
0.11523
0.11133
0.12109
0.13086
0.14063
0.14063
0.13477
0.13477
0.14453
0.15039
0.15625
0.15039
0.15625
0.15039
0.17578
0.17969
0.18945
0.2207
0.23047
0.23047
0.24023
0.26953
0.29102
0.30078
0.28516
0.29102
0.26953
0.24023
0.21484
0.20508
0.18555
0.17969
0.18555
0.18945
0.17578
0.17578
0.17969
0.17578
0.19531
0.20117
0.17969
0.17969
0.17969
0.18555
0.19531
0.19531
0.18945
0.19531
0.20117
0.19531
0.19531
0.18945
0.20117
0.19531
0.20117
0.18945
0.17578
0.17969
0.17578
0.19531
0.18555
0.18555
0.17578
0.18555
0.18555
0.18945
0.18555
0.20117
0.18555
0.17969
0.18555
0.18945
0.17969
0.18945
0.20117
0.20508
0.20117
0.19531
0.20117
0.19531
0.20117
0.22461
0.26563
0.29102
0.26953
0.32422
0.375
0.35547
0.33984
0.32031
0.26563
0.24609
0.23047
0.19531
0.16602
0.16602
0.15039
0.15039
0.15039
0.14063
0.15625
0.26953
0.48438
0.91016
1.2637
0.74414
-0.054688
-0.18945
0.0058594
0.089844
0.125
0.12109
0.125
0.13477
0.11523
0.10547
0.11133
0.11523
0.13086
0.13477
0.14063
0.15039
0.16016
0.15625
0.15625
0.16016
0.16602
0.16992
0.17578
0.18555
0.20508
0.21484
0.20508
0.24023
0.25
0.26563
0.2793
0.29492
0.29102
0.27539
0.26563
0.24609
0.22461
0.21484
0.20508
0.20117
0.20117
0.18945
0.17578
0.17578
0.17578
0.17578
0.17969
0.17578
0.17578
0.17969
0.17969
0.17578
0.18945
0.19531
0.18945
0.17969
0.19531
0.18555
0.17578
0.17969
0.17578
0.16602
0.16602
0.16992
0.17969
0.17578
0.17578
0.17969
0.16602
0.16016
0.16992
0.17578
0.17578
0.16602
0.16992
0.17578
0.16992
0.17969
0.17578
0.17578
0.17578
0.17969
0.19531
0.17969
0.17969
0.17969
0.17969
0.18945
0.18555
0.19531
0.2207
0.24023
0.26953
0.25586
0.29102
0.33984
0.35547
0.33984
0.32031
0.25977
0.24023
0.2207
0.18555
0.14453
0.13477
0.14453
0.15039
0.13477
0.13086
0.12109
0.2207
0.43555
0.83008
1.2285
0.82031
0.019531
-0.20508
-0.029297
0.076172
0.11133
0.11133
0.11523
0.13477
0.125
0.12109
0.13086
0.13086
0.13477
0.14063
0.14063
0.15039
0.15039
0.15625
0.16602
0.16602
0.16602
0.16992
0.16602
0.17969
0.18945
0.19531
0.21094
0.23047
0.24609
0.25
0.27539
0.29102
0.30078
0.29102
0.28516
0.25586
0.2207
0.21094
0.21484
0.19531
0.18555
0.18555
0.18945
0.20117
0.17969
0.17578
0.17969
0.18555
0.20117
0.18945
0.18555
0.18945
0.18555
0.18945
0.18555
0.18945
0.20117
0.17578
0.18555
0.18945
0.17578
0.18555
0.17969
0.17578
0.18555
0.17578
0.16602
0.17578
0.20117
0.18555
0.17578
0.18555
0.16992
0.17578
0.18555
0.17578
0.17969
0.17969
0.17578
0.18555
0.19531
0.17969
0.17578
0.17969
0.18555
0.18945
0.17969
0.18945
0.18945
0.18555
0.17969
0.21484
0.23438
0.25586
0.24609
0.30078
0.3457
0.35547
0.3457
0.32031
0.25
0.23047
0.23438
0.16602
0.13086
0.13086
0.13477
0.13477
0.13086
0.11133
0.13477
0.25
0.4707
0.91992
1.2695
0.75
-0.035156
-0.20898
-0.044922
0.050781
0.099609
0.10547
0.099609
0.10547
0.125
0.13086
0.099609
0.11133
0.12109
0.11523
0.125
0.13086
0.14063
0.14453
0.15039
0.16016
0.14453
0.14063
0.15039
0.17578
0.19531
0.17969
0.17578
0.20508
0.22461
0.23438
0.25586
0.26563
0.26953
0.26563
0.24609
0.24023
0.24609
0.21094
0.16992
0.16016
0.16602
0.15625
0.16016
0.16992
0.17578
0.16602
0.18555
0.17969
0.16016
0.16016
0.16992
0.16992
0.17578
0.17578
0.17578
0.18555
0.16602
0.17578
0.16016
0.16602
0.16992
0.16016
0.16992
0.16016
0.15625
0.16016
0.17578
0.16602
0.15039
0.15039
0.16602
0.17578
0.16992
0.16602
0.16602
0.16016
0.17969
0.18555
0.16602
0.16992
0.17578
0.16602
0.16016
0.16016
0.16016
0.16016
0.16992
0.17969
0.16992
0.16992
0.17578
0.19531
0.2207
0.24609
0.25586
0.24609
0.32422
0.33984
0.32031
0.30469
0.27539
0.23047
0.21484
0.17578
0.13477
0.13086
0.125
0.12109
0.10547
0.10547
0.11133
0.17969
0.35547
0.71484
1.209
1.2188
0.14063
-0.23438
-0.089844
0.03125
0.089844
0.085938
0.080078
0.089844
0.095703
0.10547
0.11133
0.11523
0.10547
0.11133
0.125
0.11523
0.13086
0.13086
0.13086
0.13477
0.15039
0.15039
0.14453
0.16602
0.17578
0.17969
0.17578
0.19531
0.2207
0.24609
0.26563
0.27539
0.26563
0.26953
0.25586
0.24023
0.22461
0.22461
0.19531
0.16602
0.16016
0.15625
0.16602
0.16992
0.16992
0.15625
0.16016
0.16992
0.16602
0.18945
0.16992
0.16602
0.16992
0.16602
0.16992
0.16602
0.16016
0.17578
0.16016
0.16602
0.16992
0.17578
0.16992
0.15625
0.16992
0.16016
0.15625
0.16602
0.17578
0.17578
0.16016
0.15625
0.17578
0.19531
0.17969
0.16602
0.16016
0.15625
0.16992
0.17578
0.17578
0.17578
0.16992
0.17578
0.17969
0.16992
0.16992
0.17578
0.18555
0.19531
0.17578
0.16992
0.20508
0.24023
0.26953
0.25586
0.30078
0.33984
0.34961
0.35547
0.30469
0.24609
0.23047
0.21484
0.17969
0.14453
0.13477
0.13086
0.12109
0.125
0.13086
0.16992
0.25977
0.48438
0.91992
1.209
0.65039
-0.09375
-0.20508
0.0097656
0.089844
0.10547
0.10547
0.11523
0.125
0.11523
0.10547
0.11523
0.125
0.13477
0.14453
0.15625
0.14063
0.13477
0.14453
0.17578
0.16992
0.16016
0.15625
0.16992
0.18555
0.18945
0.20117
0.22461
0.22461
0.24609
0.25977
0.29102
0.28516
0.27539
0.26953
0.27539
0.25977
0.23438
0.20508
0.20117
0.19531
0.17578
0.17969
0.16992
0.17578
0.17969
0.17578
0.18555
0.18945
0.19531
0.18555
0.17578
0.17969
0.20117
0.18555
0.17578
0.16992
0.17969
0.18555
0.19531
0.20117
0.18555
0.17578
0.16992
0.17969
0.17578
0.17969
0.18555
0.17578
0.17578
0.17969
0.17969
0.17578
0.18945
0.17578
0.16992
0.16992
0.17578
0.16992
0.17969
0.17578
0.17969
0.17578
0.17578
0.18555
0.20508
0.21484
0.17969
0.17578
0.17578
0.17969
0.20117
0.23047
0.27539
0.2793
0.31445
0.33984
0.3457
0.33008
0.31445
0.25977
0.24609
0.23047
0.17969
0.15039
0.14453
0.15625
0.12109
0.11523
0.13086
0.16016
0.26563
0.47461
0.87891
1.2598
0.7793
0.0097656
-0.20898
-0.039063
0.060547
0.099609
0.11523
0.10547
0.11523
0.13086
0.125
0.13477
0.15039
0.15625
0.16016
0.15039
0.14453
0.16602
0.16992
0.15625
0.16992
0.17578
0.17578
0.17578
0.20117
0.20508
0.20117
0.20508
0.2207
0.23047
0.26563
0.27539
0.29102
0.29492
0.30078
0.29102
0.27539
0.24023
0.20508
0.19531
0.20117
0.20117
0.19531
0.18945
0.19531
0.21094
0.21094
0.20508
0.18945
0.18555
0.18945
0.18555
0.18945
0.19531
0.18945
0.20117
0.19531
0.18945
0.19531
0.18555
0.18555
0.18945
0.17578
0.17969
0.18945
0.19531
0.16992
0.17578
0.17578
0.17578
0.17969
0.18945
0.17969
0.17578
0.17578
0.17578
0.18555
0.17969
0.17578
0.17969
0.17578
0.17969
0.20117
0.21094
0.17969
0.17578
0.17578
0.18945
0.18945
0.18555
0.2207
0.26563
0.26953
0.25
0.33594
0.35938
0.33594
0.33008
0.29492
0.25
0.22461
0.18945
0.15039
0.13086
0.13086
0.15039
0.15039
0.13477
0.11523
0.20508
0.40039
0.76563
1.2695
1.0137
0.17969
-0.21484
-0.058594
0.070313
0.10547
0.10547
0.099609
0.095703
0.10547
0.11523
0.125
0.13086
0.15039
0.13477
0.13086
0.16016
0.16602
0.15039
0.14453
0.15039
0.16602
0.17578
0.17578
0.19531
0.20117
0.19531
0.22461
0.21484
0.23438
0.25586
0.26563
0.2793
0.29492
0.29492
0.27539
0.26563
0.25586
0.23438
0.21094
0.20117
0.18555
0.18945
0.17969
0.17578
0.17578
0.17969
0.18945
0.18555
0.20117
0.19531
0.18555
0.18945
0.17969
0.19531
0.17969
0.18945
0.17969
0.17578
0.19531
0.20117
0.19531
0.18555
0.17578
0.17578
0.17969
0.18555
0.17969
0.17578
0.16602
0.17578
0.17578
0.17969
0.18555
0.17969
0.17578
0.17578
0.17578
0.18945
0.17969
0.17578
0.18945
0.17578
0.17578
0.18945
0.18945
0.19531
0.18945
0.18555
0.18555
0.20508
0.24023
0.27539
0.27539
0.31055
0.34961
0.33984
0.33594
0.31055
0.26563
0.24609
0.21484
0.16992
0.14453
0.14453
0.14063
0.13477
0.13086
0.12109
0.11523
0.25
0.51563
0.93945
1.2402
0.64063
-0.10938
-0.22852
-0.013672
0.085938
0.11133
0.11133
0.10547
0.11133
0.12109
0.10547
0.11523
0.12109
0.125
0.12109
0.13086
0.14063
0.15039
0.15039
0.15039
0.15039
0.15039
0.15039
0.16992
0.18945
0.21484
0.21094
0.20117
0.2207
0.23438
0.26563
0.29102
0.30078
0.29102
0.2793
0.26953
0.26563
0.25
0.2207
0.19531
0.18945
0.18555
0.17969
0.19531
0.19531
0.18945
0.17969
0.17578
0.18945
0.19531
0.20117
0.18945
0.18555
0.19531
0.18555
0.17969
0.18555
0.19531
0.18945
0.18555
0.18555
0.18945
0.17969
0.17969
0.18555
0.17969
0.19531
0.18555
0.17578
0.17969
0.17578
0.16992
0.18555
0.18945
0.18555
0.16992
0.16602
0.17578
0.17969
0.18555
0.19531
0.18945
0.19531
0.18555
0.18945
0.17578
0.18945
0.20117
0.18945
0.18555
0.2207
0.26563
0.2793
0.26563
0.32422
0.36523
0.34961
0.33984
0.30469
0.25
0.23047
0.21094
0.16992
0.14453
0.13477
0.14063
0.14063
0.13086
0.13086
0.16602
0.2793
0.52539
0.94531
1.1992
0.55469
-0.12891
-0.21875
0.0058594
0.080078
0.095703
0.089844
0.12109
0.125
0.10547
0.099609
0.11133
0.125
0.13086
0.13086
0.125
0.125
0.14063
0.15039
0.14453
0.15625
0.16016
0.16602
0.16016
0.16602
0.16992
0.19531
0.20508
0.20117
0.2207
0.24609
0.26563
0.27539
0.28516
0.27539
0.26953
0.25586
0.23047
0.18555
0.17969
0.16992
0.15625
0.16016
0.16016
0.17578
0.17578
0.17578
0.17578
0.16016
0.16992
0.17578
0.16992
0.16016
0.16602
0.17969
0.16992
0.16602
0.16992
0.16602
0.16016
0.16016
0.15625
0.16602
0.15625
0.15625
0.15625
0.15039
0.16016
0.16016
0.16992
0.16602
0.16016
0.15625
0.15625
0.16016
0.16602
0.17969
0.17578
0.17578
0.16016
0.16992
0.17578
0.16016
0.15625
0.16992
0.17578
0.17969
0.18555
0.17578
0.17969
0.21484
0.25586
0.26563
0.30469
0.33984
0.33594
0.32031
0.31055
0.26953
0.24609
0.23047
0.19531
0.15039
0.16602
0.17578
0.11523
0.11133
0.12109
0.13477
0.21484
0.38086
0.74414
1.2188
0.95898
0.16992
-0.20898
-0.074219
0.050781
0.095703
0.099609
0.099609
0.10547
0.11523
0.10547
0.11133
0.13086
0.13086
0.13477
0.15039
0.13477
0.14453
0.15039
0.15039
0.15625
0.16016
0.15039
0.16016
0.16602
0.17969
0.20117
0.20508
0.20117
0.20508
0.23438
0.26563
0.2793
0.26953
0.26953
0.26563
0.25
0.24023
0.2207
0.18945
0.16992
0.17578
0.16992
0.17969
0.18555
0.16992
0.16602
0.16992
0.17578
0.18945
0.18945
0.18555
0.19531
0.16992
0.17578
0.17969
0.16602
0.17578
0.18945
0.17969
0.17578
0.17578
0.17578
0.17969
0.16016
0.16602
0.17578
0.16602
0.15625
0.16016
0.16992
0.16992
0.17578
0.17578
0.16602
0.16016
0.16992
0.16016
0.16602
0.18555
0.17578
0.16992
0.17578
0.17969
0.17578
0.16992
0.16016
0.16992
0.18555
0.17969
0.17578
0.19531
0.23047
0.25977
0.27539
0.32031
0.33594
0.31055
0.31445
0.30469
0.25977
0.24023
0.21484
0.17578
0.15625
0.125
0.12109
0.13086
0.13086
0.11133
0.15039
0.28516
0.56055
1.0195
1.2598
0.54492
-0.16406
-0.24023
0
0.076172
0.10547
0.095703
0.089844
0.085938
0.099609
0.11523
0.125
0.125
0.13086
0.13086
0.13477
0.13477
0.13477
0.14063
0.14063
0.14063
0.15039
0.16602
0.17578
0.16602
0.17578
0.18555
0.20117
0.2207
0.23438
0.25
0.26953
0.2793
0.2793
0.2793
0.25586
0.22461
0.20508
0.20117
0.19531
0.18945
0.17969
0.16992
0.15625
0.17578
0.17578
0.18555
0.17578
0.16992
0.16602
0.16992
0.17578
0.17969
0.18555
0.17578
0.18555
0.17969
0.18945
0.18945
0.18555
0.17578
0.16992
0.17578
0.18555
0.18555
0.18945
0.16992
0.15039
0.16602
0.17578
0.18555
0.18555
0.17969
0.16992
0.17578
0.17578
0.16992
0.17969
0.18945
0.19531
0.17578
0.17578
0.16992
0.16602
0.16992
0.17969
0.18555
0.17969
0.18555
0.17578
0.18555
0.20508
0.25
0.28516
0.25977
0.30469
0.3457
0.33984
0.33984
0.31445
0.25977
0.23047
0.21484
0.16992
0.14453
0.13086
0.13086
0.13477
0.13477
0.13086
0.14453
0.26563
0.49414
0.91406
1.2285
0.66992
-0.089844
-0.19922
0
0.080078
0.10547
0.11523
0.12109
0.11523
0.10547
0.10547
0.11133
0.12109
0.125
0.14063
0.15039
0.14063
0.15039
0.14453
0.15039
0.14453
0.15625
0.16992
0.17578
0.18555
0.19531
0.20117
0.23047
0.24609
0.22461
0.24609
0.26563
0.28516
0.28516
0.26953
0.26563
0.25586
0.24023
0.22461
0.20117
0.19531
0.17969
0.17969
0.17578
0.17578
0.17578
0.17969
0.17578
0.16992
0.16992
0.17578
0.17578
0.17969
0.17969
0.17969
0.17578
0.16992
0.17969
0.19531
0.18945
0.17578
0.16992
0.16016
0.15625
0.15625
0.15625
0.16602
0.15625
0.16016
0.16992
0.16602
0.15039
0.16602
0.16992
0.15039
0.15039
0.16016
0.16016
0.16016
0.16016
0.15625
0.16992
0.17969
0.17969
0.17578
0.16602
0.16602
0.16016
0.16992
0.17969
0.17578
0.18555
0.2207
0.25
0.25586
0.30078
0.34961
0.33008
0.30078
0.30469
0.25
0.2207
0.20117
0.16602
0.13477
0.14063
0.125
0.11133
0.12109
0.13086
0.11523
0.23438
0.42578
0.83398
1.2051
0.74414
-0.025391
-0.20898
-0.044922
0.050781
0.085938
0.095703
0.089844
0.10547
0.10547
0.11133
0.11133
0.11523
0.13086
0.125
0.13086
0.13086
0.13086
0.15039
0.15039
0.14453
0.15625
0.17969
0.18555
0.17578
0.16602
0.16992
0.18555
0.21094
0.23438
0.25
0.26563
0.26953
0.26953
0.26953
0.28516
0.25977
0.2207
0.18945
0.17578
0.17578
0.17578
0.17578
0.16992
0.17578
0.16602
0.16992
0.17578
0.17578
0.16992
0.16602
0.16992
0.17578
0.18555
0.16602
0.16016
0.16992
0.17578
0.17578
0.17969
0.16602
0.16602
0.15625
0.16016
0.16992
0.16992
0.16016
0.15625
0.15625
0.16602
0.16992
0.16016
0.15039
0.15625
0.16602
0.16602
0.17969
0.16992
0.15039
0.16016
0.17578
0.17578
0.16602
0.17578
0.16602
0.16992
0.17578
0.18945
0.20117
0.17969
0.19531
0.2207
0.24023
0.23438
0.2793
0.33984
0.35547
0.33594
0.32031
0.28516
0.25977
0.22461
0.17969
0.16016
0.14063
0.13086
0.14453
0.14453
0.13086
0.15625
0.26953
0.4707
0.89453
1.2949
0.83008
0.025391
-0.20898
-0.035156
0.070313
0.11523
0.12109
0.125
0.125
0.13086
0.14453
0.16016
0.14063
0.13086
0.14063
0.13477
0.16992
0.17578
0.16016
0.16602
0.17578
0.17578
0.18555
0.19531
0.18945
0.18555
0.20508
0.21094
0.22461
0.24609
0.25586
0.26953
0.29492
0.29492
0.29102
0.27539
0.25586
0.24609
0.2207
0.20508
0.19531
0.18945
0.19531
0.17969
0.17578
0.18555
0.17969
0.18945
0.20117
0.20508
0.18945
0.20117
0.18945
0.18555
0.18555
0.18555
0.18945
0.18945
0.18945
0.17969
0.17969
0.17578
0.17969
0.17578
0.18555
0.18945
0.17578
0.17578
0.16992
0.16602
0.17578
0.17969
0.17578
0.17969
0.17578
0.17578
0.18555
0.18945
0.17578
0.18555
0.17969
0.17578
0.17578
0.17578
0.18555
0.18945
0.18555
0.19531
0.20117
0.20508
0.22461
0.26563
0.27539
0.26953
0.33984
0.38086
0.34961
0.33008
0.30469
0.26563
0.24023
0.2207
0.16992
0.15625
0.16602
0.15039
0.14453
0.15039
0.14063
0.19531
0.36523
0.66992
1.1543
1.2793
0.35938
-0.18359
-0.083984
0.044922
0.11133
0.125
0.13086
0.13086
0.13086
0.13477
0.14453
0.15039
0.15625
0.16992
0.16602
0.16992
0.17578
0.16992
0.16016
0.17969
0.17578
0.17969
0.18945
0.19531
0.20508
0.21484
0.21094
0.23438
0.24609
0.26563
0.28516
0.30078
0.32031
0.31445
0.29492
0.29102
0.26953
0.24023
0.22461
0.21484
0.20508
0.21094
0.20117
0.20117
0.20117
0.20508
0.20117
0.20117
0.20117
0.20117
0.20508
0.21094
0.19531
0.20117
0.20117
0.20117
0.20117
0.18945
0.18555
0.20117
0.20117
0.18945
0.18945
0.19531
0.18555
0.17969
0.17578
0.17578
0.17969
0.18945
0.18555
0.17578
0.18555
0.18555
0.18555
0.19531
0.18555
0.18945
0.20117
0.18555
0.18945
0.18945
0.19531
0.20117
0.18945
0.17578
0.18555
0.18945
0.20117
0.20117
0.21484
0.25
0.29492
0.28516
0.33008
0.35938
0.33984
0.32031
0.32422
0.27539
0.24609
0.21484
0.18555
0.15039
0.14063
0.14453
0.13086
0.13477
0.125
0.16602
0.29102
0.52539
0.98047
1.209
0.59961
-0.11914
-0.20508
0.025391
0.095703
0.11133
0.10547
0.11133
0.12109
0.125
0.12109
0.14063
0.13086
0.13086
0.14453
0.15625
0.16016
0.16602
0.17578
0.17578
0.16016
0.17969
0.18945
0.18555
0.18555
0.18945
0.19531
0.20117
0.22461
0.25586
0.26953
0.2793
0.28516
0.2793
0.2793
0.28516
0.26563
0.24609
0.23047
0.20117
0.18945
0.19531
0.17969
0.17578
0.16602
0.17578
0.17969
0.17969
0.17969
0.19531
0.20117
0.17969
0.17578
0.18555
0.19531
0.18555
0.17578
0.19531
0.18555
0.17969
0.18945
0.17578
0.16016
0.17578
0.17578
0.18945
0.17969
0.16602
0.16992
0.17578
0.18945
0.17969
0.16992
0.17578
0.18555
0.17578
0.17578
0.18555
0.18945
0.19531
0.16602
0.16992
0.17969
0.20117
0.20508
0.2207
0.19531
0.17578
0.16602
0.18945
0.2207
0.25586
0.25
0.27539
0.32422
0.35547
0.33984
0.33594
0.29492
0.25977
0.2207
0.18555
0.16016
0.15039
0.13086
0.13086
0.14063
0.14453
0.13086
0.20117
0.375
0.73438
1.209
0.95508
0.20508
-0.20508
-0.083984
0.035156
0.099609
0.10547
0.099609
0.095703
0.10547
0.11133
0.10547
0.11133
0.11523
0.13086
0.13086
0.13086
0.14063
0.14063
0.14063
0.14063
0.15039
0.16016
0.15625
0.15039
0.17578
0.18555
0.19531
0.20117
0.21484
0.22461
0.24609
0.27539
0.26953
0.25977
0.25586
0.25977
0.22461
0.20508
0.19531
0.17578
0.18945
0.17969
0.17578
0.16992
0.16016
0.17578
0.17578
0.17578
0.16992
0.17578
0.17578
0.17578
0.17969
0.17969
0.18555
0.18945
0.16992
0.16602
0.16992
0.16992
0.17578
0.17969
0.17578
0.16016
0.16992
0.16016
0.15625
0.16992
0.17578
0.17578
0.16992
0.16016
0.15625
0.17578
0.17578
0.18555
0.16992
0.16016
0.17578
0.16992
0.17578
0.17578
0.17578
0.17969
0.16992
0.16992
0.17578
0.16992
0.17969
0.19531
0.21094
0.23438
0.25586
0.24609
0.31055
0.3457
0.33984
0.32422
0.28516
0.22461
0.2207
0.20117
0.15625
0.13477
0.13086
0.125
0.11523
0.125
0.11523
0.15625
0.29492
0.56445
1.0449
1.2441
0.49414
-0.16016
-0.19336
0.019531
0.085938
0.10547
0.099609
0.099609
0.10547
0.12109
0.13086
0.13086
0.12109
0.13086
0.14453
0.15625
0.13477
0.14063
0.15039
0.16016
0.16992
0.17969
0.17578
0.18555
0.20117
0.20508
0.2207
0.22461
0.24023
0.25
0.26953
0.28516
0.30078
0.29492
0.29492
0.28516
0.26563
0.24023
0.22461
0.21484
0.20117
0.20117
0.20117
0.20117
0.18945
0.18945
0.18555
0.18945
0.18555
0.20117
0.21094
0.20117
0.20117
0.19531
0.19531
0.21094
0.20508
0.21094
0.2207
0.20117
0.18555
0.17578
0.18945
0.19531
0.18945
0.18555
0.18945
0.19531
0.18945
0.19531
0.18555
0.18945
0.18945
0.19531
0.20117
0.20117
0.20117
0.19531
0.18945
0.19531
0.20117
0.18555
0.18555
0.18945
0.20117
0.20117
0.20508
0.21094
0.20117
0.21484
0.20508
0.23047
0.26563
0.2793
0.26953
0.32422
0.375
0.36523
0.33984
0.30469
0.26563
0.24609
0.23047
0.18555
0.15039
0.14453
0.15625
0.15625
0.14063
0.13086
0.16602
0.30469
0.55078
1.0137
1.2188
0.56445
-0.125
-0.19922
0.019531
0.095703
0.125
0.11523
0.125
0.12109
0.11523
0.11133
0.13477
0.15039
0.16016
0.14453
0.13477
0.14453
0.15625
0.16016
0.16602
0.15625
0.17578
0.18555
0.17578
0.17969
0.18945
0.20117
0.21484
0.22461
0.24609
0.26563
0.2793
0.28516
0.28516
0.2793
0.26953
0.25586
0.22461
0.21094
0.19531
0.18945
0.19531
0.18555
0.17578
0.17578
0.18555
0.17578
0.18555
0.17969
0.17578
0.17969
0.20117
0.20117
0.18945
0.18555
0.18945
0.17578
0.16992
0.17969
0.19531
0.17578
0.16992
0.16602
0.17578
0.16602
0.17578
0.17578
0.16602
0.16016
0.18555
0.19531
0.17578
0.16602
0.16992
0.17578
0.17578
0.17578
0.17578
0.17578
0.17578
0.17578
0.17969
0.16602
0.17578
0.17578
0.17969
0.18945
0.20117
0.19531
0.20117
0.24023
0.26953
0.26563
0.30469
0.35938
0.36523
0.33594
0.31445
0.28516
0.24609
0.2207
0.17969
0.15039
0.14063
0.13086
0.14063
0.14453
0.13477
0.14453
0.22461
0.41992
0.78906
1.2441
0.91992
0.16016
-0.20898
-0.083984
0.044922
0.095703
0.12109
0.10547
0.11523
0.12109
0.10547
0.125
0.13477
0.125
0.13086
0.13086
0.14063
0.14063
0.14453
0.15039
0.15039
0.16016
0.16016
0.15625
0.16602
0.16992
0.17578
0.18555
0.20117
0.20508
0.22461
0.25
0.26953
0.2793
0.26953
0.26563
0.25
0.23047
0.21094
0.18945
0.18555
0.18555
0.18945
0.16992
0.16602
0.16016
0.15625
0.17969
0.17578
0.17578
0.17578
0.18555
0.18945
0.17578
0.18555
0.18945
0.17578
0.16992
0.16992
0.16992
0.17578
0.17969
0.17578
0.16992
0.16602
0.17578
0.16992
0.16602
0.16992
0.17578
0.16602
0.16602
0.16992
0.17578
0.16992
0.17578
0.15625
0.16016
0.16992
0.17578
0.17969
0.16992
0.17578
0.16992
0.17578
0.16016
0.16016
0.17578
0.17578
0.18945
0.21484
0.25
0.24609
0.2793
0.33008
0.34961
0.33594
0.31055
0.25977
0.22461
0.21094
0.19531
0.14453
0.12109
0.13086
0.125
0.13086
0.125
0.11523
0.18555
0.37109
0.73047
1.1992
1.2188
0.16016
-0.22461
-0.070313
0.050781
0.099609
0.125
0.12109
0.11523
0.11523
0.11133
0.11523
0.11523
0.12109
0.13086
0.13086
0.14063
0.14453
0.15039
0.14453
0.15625
0.15039
0.15625
0.16992
0.16992
0.17969
0.18945
0.19531
0.20117
0.2207
0.24023
0.26563
0.2793
0.2793
0.2793
0.26953
0.25586
0.23438
0.21484
0.20117
0.18945
0.17578
0.16992
0.17578
0.16602
0.18555
0.17969
0.17578
0.16992
0.16992
0.17578
0.17969
0.18555
0.17578
0.18555
0.18945
0.17578
0.17969
0.18945
0.18945
0.18555
0.17969
0.17578
0.17578
0.17578
0.17578
0.18555
0.17578
0.17578
0.17578
0.16602
0.16992
0.18555
0.17969
0.17578
0.17578
0.17969
0.18945
0.18555
0.18555
0.18945
0.18945
0.18945
0.18555
0.18555
0.19531
0.19531
0.18555
0.18945
0.20117
0.23438
0.26563
0.27539
0.26563
0.33984
0.35938
0.33594
0.33008
0.29102
0.26563
0.24023
0.20508
0.16602
0.14453
0.13086
0.14063
0.13086
0.13086
0.125
0.20508
0.35938
0.66992
1.1699
1.25
0.27539
-0.18945
-0.074219
0.054688
0.099609
0.10547
0.099609
0.10547
0.10547
0.11133
0.12109
0.13086
0.12109
0.125
0.14453
0.15039
0.15625
0.15039
0.14063
0.16016
0.15625
0.15039
0.16016
0.16992
0.17969
0.17578
0.20508
0.22461
0.23438
0.24609
0.25586
0.26953
0.27539
0.27539
0.28516
0.25586
0.22461
0.20508
0.17969
0.18945
0.18555
0.17578
0.16992
0.17578
0.18555
0.19531
0.16992
0.16602
0.17969
0.18945
0.18555
0.18945
0.17969
0.18945
0.18555
0.18945
0.19531
0.17969
0.17969
0.18945
0.19531
0.17578
0.16602
0.16602
0.16602
0.16992
0.17578
0.18555
0.17578
0.16016
0.15625
0.16992
0.16602
0.18555
0.20117
0.15625
0.16602
0.16992
0.15625
0.16992
0.17578
0.17578
0.17578
0.17969
0.17578
0.17578
0.17578
0.20117
0.23438
0.26953
0.25586
0.24609
0.33594
0.35938
0.32031
0.30078
0.26563
0.25586
0.23438
0.19531
0.13477
0.13086
0.14453
0.14063
0.13086
0.125
0.11523
0.18945
0.35938
0.7207
1.1836
1.2188
0.25
-0.18945
-0.10352
0.041016
0.10547
0.12109
0.10547
0.11523
0.125
0.13086
0.13477
0.14063
0.13086
0.13477
0.15625
0.16016
0.15625
0.16602
0.16016
0.16016
0.16992
0.17578
0.17578
0.17969
0.17578
0.18945
0.20117
0.21094
0.21484
0.24023
0.25977
0.27539
0.29102
0.2793
0.26953
0.26953
0.25586
0.21094
0.18945
0.20117
0.17969
0.16602
0.16602
0.16992
0.17578
0.17578
0.17578
0.16992
0.16992
0.17578
0.17578
0.16992
0.17578
0.17578
0.18555
0.16602
0.16016
0.16602
0.16016
0.15625
0.16602
0.16016
0.16992
0.16016
0.15625
0.15039
0.15039
0.16602
0.16602
0.16016
0.15039
0.15625
0.16016
0.15039
0.16602
0.16992
0.15625
0.15039
0.15039
0.15039
0.15625
0.15039
0.16016
0.15625
0.17578
0.15625
0.16992
0.21484
0.26563
0.25
0.27539
0.31445
0.32422
0.31055
0.30078
0.25586
0.23438
0.20508
0.16602
0.13086
0.12109
0.12109
0.13086
0.125
0.11523
0.13477
0.23438
0.44531
0.875
1.2734
0.80469
-0.0097656
-0.21484
-0.044922
0.050781
0.10547
0.11133
0.089844
0.095703
0.099609
0.10547
0.099609
0.095703
0.125
0.13086
0.13477
0.13086
0.13477
0.13086
0.14453
0.13086
0.13477
0.15039
0.14453
0.15039
0.16016
0.17578
0.18945
0.20508
0.21094
0.22461
0.24023
0.26953
0.2793
0.25977
0.25586
0.23438
0.20508
0.18555
0.18555
0.18945
0.16602
0.15625
0.16016
0.15039
0.14453
0.16016
0.17578
0.16992
0.16016
0.16016
0.16602
0.16602
0.16602
0.16992
0.16992
0.17578
0.16602
0.15625
0.16602
0.16992
0.15625
0.17578
0.17969
0.16016
0.15039
0.15039
0.15039
0.15039
0.15625
0.17578
0.18555
0.16016
0.15625
0.16016
0.15039
0.15625
0.16602
0.17578
0.18555
0.16016
0.16016
0.16602
0.16602
0.17969
0.17578
0.17578
0.20508
0.24609
0.25586
0.24609
0.31055
0.33984
0.32422
0.31445
0.29492
0.23438
0.21094
0.18555
0.15625
0.13477
0.125
0.125
0.12109
0.11523
0.12109
0.15039
0.26953
0.53906
0.98047
1.209
0.51563
-0.13867
-0.19922
0.019531
0.076172
0.099609
0.10547
0.10547
0.12109
0.12109
0.13086
0.13477
0.13086
0.13086
0.13477
0.14453
0.15039
0.14453
0.15039
0.16016
0.16602
0.16016
0.16992
0.17969
0.18555
0.19531
0.21484
0.24609
0.25
0.24023
0.27539
0.2793
0.28516
0.29492
0.30078
0.27539
0.26563
0.23438
0.21484
0.21484
0.20508
0.20117
0.20117
0.19531
0.18555
0.19531
0.18555
0.17969
0.17578
0.18555
0.18945
0.19531
0.19531
0.20117
0.20117
0.18945
0.17969
0.18945
0.18555
0.20117
0.19531
0.18945
0.18555
0.17969
0.18945
0.17578
0.17578
0.17578
0.17969
0.18555
0.18555
0.19531
0.17578
0.16602
0.17578
0.17969
0.18555
0.18945
0.17969
0.17578
0.16992
0.16992
0.17969
0.20117
0.19531
0.18945
0.17578
0.17969
0.2207
0.25586
0.27539
0.26563
0.32422
0.36523
0.34961
0.33984
0.30469
0.24609
0.23047
0.20508
0.16992
0.13477
0.125
0.13086
0.13086
0.125
0.13086
0.15039
0.2793
0.50977
0.96875
1.2148
0.58984
-0.11914
-0.20898
-0.0039063
0.076172
0.095703
0.099609
0.099609
0.12109
0.13086
0.125
0.13086
0.125
0.12109
0.13086
0.13086
0.13086
0.14063
0.15039
0.16992
0.17578
0.16992
0.15625
0.16992
0.17969
0.18945
0.18945
0.19531
0.21484
0.24023
0.25586
0.26953
0.29102
0.29492
0.2793
0.26953
0.24609
0.23438
0.22461
0.20117
0.18555
0.17969
0.18555
0.17969
0.18945
0.17969
0.17578
0.19531
0.20117
0.18555
0.17969
0.18945
0.17969
0.19531
0.20117
0.20117
0.19531
0.18945
0.19531
0.17969
0.17969
0.18555
0.19531
0.20117
0.17969
0.17578
0.18945
0.17578
0.17969
0.17578
0.18555
0.19531
0.18945
0.18555
0.17578
0.17578
0.19531
0.20508
0.17969
0.17578
0.16992
0.17578
0.17578
0.17969
0.18555
0.18945
0.19531
0.18555
0.23047
0.24609
0.26563
0.25586
0.28516
0.33984
0.34961
0.3457
0.33008
0.2793
0.24609
0.22461
0.20508
0.20117
0.14453
0.11523
0.13086
0.13477
0.13477
0.13086
0.21484
0.38477
0.76953
1.2441
0.95508
0.15625
-0.21875
-0.070313
0.050781
0.085938
0.095703
0.10547
0.11133
0.10547
0.125
0.11523
0.12109
0.13086
0.13086
0.13086
0.15039
0.14063
0.13086
0.13477
0.14063
0.15039
0.16016
0.16602
0.16992
0.17969
0.18555
0.18945
0.20117
0.21484
0.23438
0.25977
0.25977
0.26563
0.26953
0.26953
0.25586
0.24023
0.2207
0.18555
0.17969
0.17578
0.17578
0.16992
0.17578
0.16016
0.16016
0.16992
0.16602
0.16016
0.17969
0.17578
0.16992
0.17578
0.17969
0.17578
0.16992
0.16602
0.16016
0.17578
0.16016
0.16602
0.17578
0.16992
0.16016
0.16992
0.16602
0.15039
0.15625
0.14453
0.15625
0.16016
0.15039
0.16016
0.16602
0.16992
0.16992
0.17578
0.16602
0.17578
0.17578
0.17969
0.16992
0.16602
0.16602
0.16602
0.16992
0.17578
0.18555
0.20117
0.22461
0.25
0.24023
0.28516
0.3457
0.36523
0.32031
0.30469
0.26563
0.24023
0.21484
0.18555
0.14453
0.13086
0.125
0.14063
0.12109
0.11523
0.13477
0.2207
0.39453
0.77539
1.2344
0.92969
0.085938
-0.20898
-0.048828
0.064453
0.099609
0.099609
0.10547
0.10547
0.11523
0.12109
0.12109
0.125
0.13086
0.13477
0.13477
0.13477
0.13086
0.13477
0.14063
0.14453
0.15039
0.16016
0.16992
0.15625
0.16602
0.18555
0.20117
0.22461
0.23438
0.24609
0.25
0.26563
0.27539
0.2793
0.26563
0.24609
0.23438
0.21484
0.20117
0.17969
0.17578
0.17578
0.18555
0.19531
0.17578
0.17578
0.16992
0.16992
0.17969
0.18555
0.16992
0.17578
0.16992
0.16602
0.17578
0.17578
0.18555
0.18945
0.17578
0.16602
0.15039
0.15039
0.16602
0.16992
0.16602
0.16992
0.17578
0.16602
0.16992
0.17969
0.16602
0.15625
0.17578
0.17969
0.17578
0.17578
0.17578
0.17969
0.16992
0.17578
0.18555
0.18555
0.18555
0.17578
0.16992
0.17578
0.19531
0.22461
0.25977
0.25586
0.28516
0.33594
0.34961
0.33594
0.31055
0.26563
0.24023
0.24609
0.2207
0.16992
0.14063
0.13086
0.13086
0.125
0.125
0.13086
0.18555
0.3457
0.6543
1.1445
1.2148
0.26953
-0.20508
-0.09375
0.044922
0.12109
0.10547
0.095703
0.089844
0.10547
0.12109
0.13086
0.13086
0.13086
0.14063
0.13477
0.14063
0.15039
0.15625
0.15039
0.15625
0.15625
0.16602
0.16602
0.16992
0.18945
0.19531
0.20117
0.21094
0.23047
0.24609
0.25586
0.26953
0.2793
0.26953
0.26953
0.26953
0.25586
0.22461
0.21094
0.19531
0.19531
0.17969
0.17578
0.17969
0.17578
0.19531
0.18945
0.18555
0.17578
0.18945
0.19531
0.20117
0.19531
0.17578
0.17578
0.19531
0.18945
0.20117
0.20508
0.18555
0.17578
0.17969
0.18945
0.17578
0.15625
0.15625
0.16992
0.16992
0.17578
0.17578
0.16992
0.17969
0.17969
0.17969
0.17969
0.17969
0.17578
0.17969
0.18555
0.18945
0.17578
0.16992
0.17969
0.17578
0.17578
0.17969
0.18945
0.21484
0.25586
0.26953
0.25
0.32031
0.34961
0.33984
0.32422
0.30469
0.26953
0.23047
0.19531
0.16016
0.14063
0.14453
0.13086
0.13086
0.13086
0.12109
0.16992
0.30469
0.57422
1.0391
1.2344
0.51563
-0.13477
-0.20898
0
0.076172
0.10547
0.095703
0.099609
0.10547
0.11523
0.10547
0.11523
0.125
0.13086
0.13086
0.13477
0.14453
0.15039
0.14063
0.15039
0.14453
0.15039
0.14063
0.15625
0.16992
0.17969
0.18555
0.20117
0.21484
0.24023
0.25977
0.26953
0.28516
0.29102
0.26953
0.26953
0.24609
0.23047
0.22461
0.19531
0.18945
0.17969
0.17578
0.17578
0.18945
0.19531
0.18555
0.17578
0.17969
0.18555
0.17969
0.19531
0.18945
0.20117
0.18945
0.18555
0.19531
0.17969
0.18555
0.18555
0.18945
0.18555
0.18945
0.17969
0.18555
0.16992
0.17578
0.17578
0.16992
0.17578
0.17578
0.16992
0.17578
0.17578
0.17578
0.16992
0.17578
0.18555
0.17578
0.18555
0.18555
0.17969
0.18555
0.17578
0.17969
0.17578
0.17578
0.18945
0.2207
0.25977
0.24609
0.2793
0.33594
0.3457
0.33594
0.32422
0.29102
0.25
0.2207
0.18555
0.15625
0.15039
0.125
0.12109
0.12109
0.125
0.12109
0.17969
0.34961
0.66992
1.1602
1.2246
0.24023
-0.20898
-0.083984
0.035156
0.089844
0.099609
0.11523
0.10547
0.10547
0.11133
0.125
0.125
0.12109
0.13477
0.13477
0.13086
0.13477
0.14063
0.14453
0.15039
0.16016
0.16602
0.15039
0.16016
0.17578
0.17969
0.19531
0.20508
0.23047
0.24609
0.25977
0.28516
0.29102
0.29492
0.27539
0.25586
0.24023
0.2207
0.18945
0.18555
0.19531
0.17578
0.17578
0.17578
0.16602
0.15625
0.16016
0.16992
0.16602
0.16992
0.17578
0.17578
0.17578
0.16992
0.17969
0.17578
0.17578
0.17969
0.16602
0.15039
0.15625
0.16992
0.17578
0.16602
0.16016
0.16992
0.17969
0.17578
0.16016
0.16016
0.16992
0.16602
0.17578
0.17969
0.17578
0.16602
0.16016
0.17578
0.18555
0.16992
0.16602
0.17578
0.18945
0.19531
0.17578
0.17578
0.17969
0.21094
0.25
0.29102
0.25977
0.28516
0.33984
0.34961
0.33594
0.31055
0.27539
0.24609
0.22461
0.18555
0.15625
0.14453
0.14063
0.14063
0.13477
0.13086
0.125
0.2207
0.39063
0.77539
1.2188
0.91406
0.11133
-0.20508
-0.044922
0.064453
0.10547
0.11133
0.125
0.13086
0.13086
0.13477
0.14453
0.15039
0.15039
0.15039
0.15625
0.15039
0.15039
0.16016
0.16016
0.16602
0.17578
0.17969
0.17969
0.17578
0.18555
0.20508
0.20508
0.21484
0.23438
0.25586
0.26563
0.26953
0.26953
0.2793
0.28516
0.26953
0.24609
0.22461
0.20508
0.20508
0.18945
0.17969
0.18555
0.17578
0.20508
0.19531
0.17969
0.17578
0.17969
0.18555
0.18945
0.19531
0.20508
0.18555
0.17969
0.18555
0.19531
0.18555
0.17969
0.17578
0.18555
0.17578
0.16016
0.16602
0.15625
0.17578
0.16992
0.16992
0.16992
0.16016
0.16992
0.17578
0.17578
0.17578
0.16992
0.16992
0.17578
0.16016
0.17578
0.17969
0.17578
0.17969
0.18555
0.17578
0.17578
0.19531
0.22461
0.25
0.25586
0.25
0.33594
0.33984
0.32031
0.31055
0.27539
0.23438
0.2207
0.19531
0.14453
0.125
0.11523
0.13086
0.13477
0.12109
0.11523
0.20508
0.40039
0.77539
1.2246
0.91016
0.15039
-0.20508
-0.070313
0.035156
0.085938
0.10547
0.10547
0.11523
0.13086
0.11133
0.10547
0.11523
0.125
0.13477
0.13477
0.14063
0.14063
0.14453
0.15625
0.15039
0.15039
0.16016
0.17578
0.18945
0.17578
0.16992
0.17969
0.18945
0.20508
0.23047
0.25586
0.2793
0.26953
0.25977
0.25586
0.24023
0.22461
0.21484
0.19531
0.16992
0.17578
0.17969
0.17578
0.17969
0.17578
0.17578
0.16992
0.16016
0.17578
0.17578
0.17969
0.17969
0.17578
0.17969
0.18555
0.17578
0.17969
0.17578
0.17969
0.17578
0.16992
0.17578
0.16602
0.16016
0.17578
0.17969
0.17578
0.17578
0.16992
0.16602
0.16602
0.16602
0.16992
0.17578
0.17969
0.17578
0.17578
0.17969
0.18555
0.17578
0.17578
0.17578
0.16992
0.17578
0.18555
0.20117
0.2207
0.24609
0.25977
0.25586
0.31445
0.34961
0.33594
0.33984
0.30469
0.25
0.23438
0.21484
0.17578
0.15039
0.14063
0.15039
0.14063
0.14453
0.11523
0.16992
0.33594
0.64453
1.1289
1.2949
0.44531
-0.17383
-0.19922
0.041016
0.095703
0.10547
0.11523
0.10547
0.11133
0.11133
0.13086
0.13086
0.13086
0.14063
0.15039
0.15039
0.14063
0.13477
0.15039
0.15625
0.16016
0.16602
0.16602
0.16602
0.17578
0.18555
0.19531
0.21484
0.22461
0.24609
0.25977
0.2793
0.28516
0.2793
0.27539
0.26953
0.24609
0.22461
0.21094
0.20117
0.19531
0.18555
0.18555
0.18555
0.17578
0.17578
0.16992
0.17578
0.18555
0.17969
0.18945
0.19531
0.18945
0.20117
0.17578
0.17969
0.18555
0.18945
0.17578
0.17578
0.17578
0.17578
0.16992
0.16602
0.17969
0.20117
0.16992
0.16602
0.17578
0.16602
0.17969
0.17578
0.16602
0.16016
0.17578
0.17578
0.17578
0.18555
0.19531
0.17578
0.17578
0.17969
0.17578
0.17578
0.17969
0.19531
0.18555
0.20508
0.24023
0.26953
0.25586
0.30078
0.33594
0.34961
0.3457
0.31445
0.25977
0.24023
0.22461
0.17969
0.14453
0.13477
0.13086
0.13477
0.13086
0.13086
0.15625
0.25977
0.45508
0.86914
1.2637
0.77539
-0.039063
-0.20898
-0.0097656
0.070313
0.11133
0.10547
0.099609
0.11523
0.12109
0.13086
0.13477
0.13477
0.14453
0.14453
0.15039
0.14453
0.15039
0.16016
0.17578
0.17578
0.16992
0.16016
0.16992
0.18945
0.18555
0.21484
0.20117
0.23047
0.24023
0.26563
0.28516
0.30078
0.30469
0.29102
0.28516
0.29102
0.24023
0.21484
0.20117
0.19531
0.20117
0.18555
0.18945
0.20117
0.18555
0.18945
0.19531
0.19531
0.18555
0.17969
0.20117
0.20508
0.18555
0.17969
0.18555
0.19531
0.17969
0.17578
0.18945
0.20117
0.20508
0.20117
0.19531
0.20117
0.19531
0.17969
0.17578
0.17578
0.17969
0.17578
0.17578
0.17969
0.18945
0.20117
0.19531
0.18945
0.20508
0.20117
0.20117
0.19531
0.19531
0.17969
0.17578
0.18555
0.19531
0.18555
0.21484
0.23438
0.26563
0.2793
0.27539
0.33594
0.36523
0.35547
0.33594
0.30469
0.25977
0.24023
0.2207
0.17578
0.15039
0.15039
0.14453
0.14063
0.15039
0.13086
0.17969
0.31055
0.58984
1.0742
1.2539
0.49023
-0.125
-0.19336
0.019531
0.085938
0.11523
0.12109
0.13086
0.12109
0.13086
0.13086
0.13086
0.14063
0.14063
0.14453
0.15625
0.15039
0.16016
0.15625
0.16992
0.17578
0.17578
0.16016
0.16992
0.17578
0.18555
0.20508
0.22461
0.23438
0.25
0.25586
0.26953
0.29102
0.29492
0.27539
0.26563
0.25
0.2207
0.19531
0.20117
0.19531
0.18945
0.18555
0.18945
0.17969
0.16602
0.17578
0.17969
0.17969
0.17578
0.20117
0.20117
0.18555
0.17578
0.17969
0.17969
0.18945
0.17969
0.17969
0.17578
0.17969
0.17578
0.16602
0.17578
0.17578
0.16992
0.17578
0.16016
0.17578
0.17969
0.16016
0.15625
0.18555
0.18945
0.17969
0.17969
0.16016
0.16602
0.18555
0.17578
0.17578
0.17578
0.17578
0.16992
0.20117
0.18945
0.18555
0.20508
0.25
0.25977
0.25
0.31055
0.33984
0.33984
0.32031
0.28516
0.26563
0.24609
0.21094
0.16016
0.13477
0.13086
0.14063
0.15039
0.13477
0.12109
0.18555
0.33008
0.6543
1.1602
1.2637
0.39063
-0.1543
-0.19336
0.015625
0.089844
0.125
0.11133
0.13086
0.12109
0.11523
0.125
0.13086
0.125
0.13086
0.14063
0.13086
0.15039
0.16602
0.16016
0.16016
0.15039
0.16992
0.17578
0.17969
0.18945
0.17969
0.18945
0.21094
0.21484
0.23438
0.26563
0.27539
0.29102
0.2793
0.26953
0.25
0.24023
0.22461
0.21094
0.20117
0.20117
0.17578
0.16992
0.17578
0.17578
0.17969
0.17578
0.16992
0.17969
0.17969
0.18555
0.18945
0.18555
0.17969
0.18555
0.19531
0.19531
0.19531
0.18945
0.17578
0.17578
0.17578
0.17578
0.16992
0.17969
0.18555
0.17969
0.17578
0.17969
0.16602
0.17578
0.18555
0.17969
0.17578
0.17969
0.18555
0.17969
0.17578
0.18555
0.17969
0.17578
0.18945
0.19531
0.16992
0.16602
0.17578
0.21484
0.25
0.25977
0.25
0.33594
0.35938
0.33594
0.32422
0.28516
0.25
0.24609
0.20508
0.16602
0.14063
0.13086
0.125
0.12109
0.13086
0.125
0.18555
0.34961
0.69922
1.1895
1.3047
0.32031
-0.20508
-0.10352
0.019531
0.095703
0.10547
0.11133
0.11523
0.12109
0.11523
0.12109
0.13086
0.125
0.13086
0.13477
0.14453
0.15039
0.15039
0.16016
0.16992
0.16602
0.16602
0.16016
0.17578
0.18555
0.20117
0.20117
0.21094
0.23438
0.24609
0.25977
0.27539
0.2793
0.28516
0.29102
0.25977
0.24023
0.21094
0.20117
0.18945
0.18555
0.17578
0.16992
0.17578
0.16992
0.16602
0.17578
0.17578
0.17578
0.16016
0.17578
0.17578
0.16992
0.16992
0.17578
0.17969
0.18555
0.17578
0.18555
0.17578
0.17578
0.16602
0.16016
0.16016
0.16016
0.16602
0.16992
0.16016
0.17578
0.17578
0.16992
0.16602
0.17578
0.16016
0.16016
0.16992
0.16016
0.17578
0.16992
0.16602
0.16992
0.16602
0.16992
0.17578
0.17969
0.17578
0.17578
0.19531
0.2207
0.25586
0.25
0.28516
0.33984
0.34961
0.33008
0.30469
0.25977
0.23438
0.22461
0.19531
0.14453
0.125
0.11523
0.11133
0.10547
0.10547
0.125
0.2207
0.40039
0.75977
1.2344
0.95508
0.14063
-0.20508
-0.048828
0.060547
0.10547
0.099609
0.10547
0.10547
0.10547
0.099609
0.12109
0.125
0.125
0.13086
0.13086
0.14063
0.14063
0.14453
0.15039
0.15625
0.15625
0.15625
0.16992
0.17578
0.18945
0.20117
0.20117
0.21094
0.24609
0.26563
0.26953
0.2793
0.27539
0.2793
0.28516
0.25
0.23047
0.20117
0.19531
0.18555
0.18945
0.17578
0.16602
0.17578
0.18555
0.16602
0.16016
0.16992
0.15625
0.16602
0.17969
0.16992
0.17578
0.17578
0.16992
0.17578
0.17969
0.18555
0.16992
0.16016
0.17969
0.16992
0.16016
0.15625
0.16016
0.17578
0.16992
0.15039
0.15039
0.16016
0.16602
0.16992
0.16992
0.16602
0.16992
0.16602
0.17578
0.16602
0.16992
0.17578
0.17969
0.16602
0.16016
0.16992
0.16992
0.17969
0.18945
0.21094
0.24023
0.26563
0.25586
0.30469
0.34961
0.33594
0.32422
0.30078
0.23438
0.2207
0.20508
0.16602
0.14063
0.13477
0.13477
0.125
0.13086
0.13086
0.16992
0.28516
0.55078
0.98438
1.1934
0.58984
-0.080078
-0.19336
-0.0039063
0.070313
0.11523
0.13086
0.125
0.12109
0.11523
0.12109
0.125
0.13086
0.13086
0.13086
0.125
0.13086
0.14453
0.15039
0.16016
0.16016
0.16602
0.16992
0.16992
0.17578
0.18555
0.18945
0.18555
0.22461
0.25586
0.26953
0.27539
0.27539
0.28516
0.25977
0.24609
0.24023
0.22461
0.20508
0.16992
0.15625
0.15039
0.15625
0.17578
0.16992
0.15625
0.16016
0.16992
0.16602
0.16016
0.16602
0.16992
0.16016
0.17578
0.16992
0.16602
0.16602
0.15625
0.16016
0.16602
0.14063
0.15039
0.16602
0.15625
0.14453
0.15625
0.16016
0.17578
0.17578
0.15625
0.15625
0.16016
0.16602
0.15039
0.15039
0.15625
0.16602
0.16602
0.16016
0.15625
0.16602
0.17578
0.16016
0.16016
0.15625
0.15039
0.18555
0.22461
0.24609
0.22461
0.2793
0.32031
0.30469
0.31445
0.30078
0.25
0.21484
0.19531
0.14453
0.13086
0.13086
0.11133
0.10547
0.099609
0.085938
0.13086
0.28516
0.54492
1.0195
1.2598
0.62891
-0.099609
-0.21484
-0.039063
0.044922
0.080078
0.076172
0.080078
0.089844
0.089844
0.089844
0.085938
0.099609
0.10547
0.10547
0.11133
0.10547
0.11523
0.125
0.13086
0.13086
0.13477
0.13477
0.13477
0.15039
0.16992
0.18555
0.17578
0.17578
0.20117
0.24023
0.25977
0.25977
0.26563
0.25
0.24609
0.23047
0.20508
0.17578
0.17969
0.16602
0.15625
0.15039
0.15625
0.14453
0.15625
0.16992
0.17578
0.15625
0.15039
0.15625
0.16992
0.15039
0.16016
0.16016
0.16992
0.17578
0.16602
0.16016
0.15039
0.16602
0.16992
0.16992
0.16602
0.16016
0.15625
0.14453
0.15039
0.16016
0.16602
0.15625
0.15625
0.16016
0.15039
0.15039
0.16016
0.15039
0.16016
0.16602
0.16016
0.14453
0.14063
0.16016
0.16602
0.16016
0.16602
0.16016
0.19531
0.24023
0.25977
0.24023
0.26953
0.31445
0.32031
0.31445
0.30078
0.25
0.22461
0.20508
0.16992
0.14063
0.12109
0.12109
0.12109
0.11523
0.10547
0.13477
0.24023
0.43945
0.85547
1.2695
0.83984
0.0097656
-0.18945
-0.044922
0.044922
0.089844
0.10547
0.10547
0.099609
0.095703
0.10547
0.11523
0.11133
0.125
0.10547
0.099609
0.125
0.13086
0.14453
0.13086
0.14453
0.16602
0.15625
0.16016
0.17578
0.18555
0.20117
0.20117
0.20508
0.22461
0.24609
0.26563
0.2793
0.28516
0.27539
0.26953
0.24609
0.22461
0.20117
0.17578
0.17578
0.17969
0.17578
0.16992
0.17578
0.17578
0.16602
0.15625
0.16016
0.16992
0.17578
0.16602
0.15625
0.16602
0.17578
0.17578
0.17969
0.18945
0.17578
0.17578
0.17578
0.16992
0.17578
0.16992
0.16016
0.16602
0.16016
0.16992
0.17578
0.17578
0.17578
0.17578
0.16602
0.16602
0.16992
0.16602
0.15625
0.16992
0.17969
0.16602
0.16016
0.16992
0.17969
0.17578
0.18555
0.17578
0.17969
0.19531
0.2207
0.25586
0.25977
0.25586
0.31445
0.33984
0.33594
0.31445
0.28516
0.24609
0.23438
0.20117
0.15039
0.14063
0.13086
0.13477
0.13477
0.13477
0.11523
0.16602
0.30469
0.56055
1.0293
1.2285
0.49414
-0.14453
-0.19336
0.015625
0.099609
0.12109
0.11133
0.10547
0.125
0.14063
0.13086
0.125
0.13086
0.14453
0.15625
0.16016
0.15625
0.15039
0.16016
0.15625
0.17578
0.17969
0.17578
0.18945
0.18555
0.22461
0.22461
0.22461
0.23438
0.25977
0.29102
0.31445
0.32031
0.30469
0.2793
0.27539
0.25977
0.24023
0.22461
0.21484
0.21094
0.20117
0.18945
0.19531
0.20117
0.20117
0.17969
0.17578
0.18555
0.18945
0.18555
0.20117
0.18945
0.19531
0.21094
0.21484
0.20117
0.18555
0.18945
0.20117
0.20117
0.18555
0.16992
0.17578
0.17969
0.17578
0.17578
0.18555
0.18945
0.18945
0.19531
0.17969
0.17578
0.18555
0.17578
0.20117
0.18945
0.18555
0.18945
0.17578
0.18555
0.20117
0.18555
0.17969
0.19531
0.21094
0.21484
0.21094
0.26563
0.2793
0.26563
0.3457
0.375
0.35547
0.33594
0.30078
0.25586
0.24023
0.2207
0.17578
0.15039
0.15625
0.15625
0.14453
0.15039
0.14063
0.18555
0.33984
0.5957
1.0742
1.2402
0.50977
-0.11914
-0.17969
0.025391
0.095703
0.10547
0.11133
0.10547
0.125
0.13477
0.15039
0.13477
0.13086
0.14453
0.15039
0.16016
0.16992
0.16016
0.15039
0.16016
0.18555
0.19531
0.17578
0.17969
0.20117
0.21094
0.22461
0.24609
0.23047
0.24609
0.26563
0.29492
0.2793
0.28516
0.27539
0.26953
0.25
0.2207
0.22461
0.21484
0.19531
0.17969
0.18555
0.18945
0.18555
0.19531
0.17969
0.16602
0.17578
0.18945
0.19531
0.17969
0.17578
0.18945
0.17969
0.18555
0.18555
0.18555
0.18555
0.17969
0.18945
0.19531
0.18945
0.17969
0.16602
0.17969
0.17578
0.17578
0.17578
0.17969
0.17578
0.17969
0.17578
0.17578
0.17969
0.17578
0.17578
0.17578
0.17969
0.17969
0.17578
0.17578
0.17969
0.18945
0.18945
0.17578
0.16992
0.17969
0.2207
0.24023
0.26563
0.25977
0.30469
0.35938
0.34961
0.33594
0.31055
0.26563
0.23047
0.21094
0.17969
0.13477
0.13086
0.13477
0.14453
0.14063
0.14063
0.13477
0.26953
0.5
0.94922
1.3047
0.75977
-0.054688
-0.21484
-0.013672
0.070313
0.10547
0.099609
0.10547
0.12109
0.11523
0.125
0.13086
0.125
0.13477
0.14063
0.125
0.14063
0.14453
0.15039
0.15625
0.16016
0.16016
0.16602
0.16016
0.17578
0.18945
0.20508
0.20117
0.21484
0.24023
0.26563
0.27539
0.29102
0.29492
0.28516
0.26953
0.25586
0.23047
0.21484
0.20117
0.18945
0.20117
0.17969
0.17969
0.17969
0.18555
0.17578
0.17578
0.16992
0.17969
0.17578
0.16992
0.17578
0.17578
0.17969
0.17578
0.17578
0.17578
0.18555
0.19531
0.17578
0.17578
0.17578
0.17969
0.16016
0.16602
0.17578
0.17578
0.17578
0.17578
0.16992
0.17578
0.16992
0.17969
0.18555
0.16992
0.16602
0.17969
0.18945
0.16992
0.16992
0.17578
0.17969
0.18555
0.17578
0.16992
0.17578
0.17969
0.17969
0.18945
0.23047
0.26953
0.27539
0.25977
0.32422
0.35938
0.3457
0.33594
0.30469
0.26563
0.24023
0.2207
0.17969
0.15625
0.14453
0.14453
0.15039
0.15625
0.14453
0.16602
0.31055
0.57422
1.0449
1.2402
0.49023
-0.14844
-0.17969
0.03125
0.10547
0.14453
0.125
0.11133
0.10547
0.12109
0.13086
0.11523
0.13086
0.14063
0.14063
0.15039
0.15039
0.15039
0.17578
0.17969
0.17578
0.16992
0.17578
0.17969
0.20117
0.20117
0.21094
0.22461
0.24609
0.25
0.27539
0.29492
0.30469
0.29492
0.29102
0.29102
0.26563
0.24023
0.2207
0.21484
0.2207
0.21094
0.18945
0.18555
0.17969
0.18555
0.17578
0.17969
0.19531
0.21484
0.20508
0.18945
0.18555
0.21094
0.21484
0.20117
0.19531
0.19531
0.18555
0.18945
0.20117
0.20117
0.17578
0.17578
0.17578
0.18945
0.18945
0.18945
0.17578
0.17578
0.16992
0.19531
0.21484
0.17969
0.16602
0.17578
0.17969
0.18555
0.18945
0.19531
0.17578
0.17969
0.18555
0.19531
0.18555
0.17969
0.21094
0.18945
0.17969
0.20117
0.23047
0.27539
0.29102
0.26953
0.35547
0.36523
0.33594
0.32031
0.28516
0.26953
0.25
0.19531
0.15625
0.15039
0.13477
0.13477
0.15039
0.15039
0.14453
0.21484
0.39063
0.72461
1.2148
1.2402
0.25586
-0.18945
-0.083984
0.050781
0.12109
0.13086
0.125
0.13477
0.13086
0.12109
0.13086
0.13086
0.13477
0.15039
0.15625
0.16016
0.15625
0.15039
0.18555
0.19531
0.16992
0.16992
0.17578
0.16992
0.19531
0.20508
0.21484
0.22461
0.24609
0.25977
0.27539
0.26953
0.28516
0.29102
0.26563
0.25977
0.24023
0.21484
0.21094
0.19531
0.17578
0.16602
0.16992
0.16992
0.17578
0.16602
0.16992
0.17969
0.17578
0.16602
0.17578
0.18555
0.16016
0.16602
0.16992
0.18945
0.17969
0.17578
0.16992
0.16992
0.16992
0.17969
0.16992
0.16602
0.16016
0.17578
0.16992
0.17578
0.15625
0.17578
0.16016
0.16602
0.16992
0.16016
0.16016
0.16992
0.17578
0.16602
0.15625
0.16602
0.17578
0.17578
0.16992
0.17578
0.18555
0.17578
0.17578
0.18555
0.2207
0.25586
0.24609
0.29102
0.33984
0.33984
0.31445
0.29102
0.25586
0.24609
0.23047
0.17578
0.13477
0.13086
0.125
0.125
0.13086
0.10547
0.14063
0.29102
0.51953
0.96875
1.2734
0.68945
-0.080078
-0.20898
-0.025391
0.064453
0.089844
0.10547
0.10547
0.099609
0.10547
0.089844
0.099609
0.11523
0.13086
0.11523
0.125
0.13086
0.13086
0.13477
0.14063
0.13477
0.14453
0.15625
0.16602
0.16992
0.16602
0.16992
0.18945
0.20508
0.23047
0.24609
0.25
0.25977
0.26953
0.26563
0.24609
0.23438
0.21484
0.19531
0.17578
0.16602
0.15039
0.15625
0.16016
0.15625
0.16016
0.15039
0.15039
0.15039
0.16016
0.16602
0.16992
0.16992
0.16992
0.17578
0.15625
0.16016
0.16992
0.17578
0.16992
0.16016
0.15625
0.16992
0.16992
0.16602
0.16016
0.14453
0.14063
0.14453
0.14453
0.16016
0.16602
0.16016
0.16602
0.16016
0.15625
0.16992
0.17578
0.16992
0.16016
0.15625
0.16992
0.16602
0.16602
0.15625
0.16602
0.16602
0.16016
0.16992
0.20117
0.24023
0.25
0.24023
0.29492
0.33984
0.33984
0.32031
0.29102
0.23047
0.2207
0.20508
0.16602
0.13477
0.125
0.11133
0.11133
0.11133
0.10547
0.14063
0.26563
0.5293
0.96875
1.2246
0.55078
-0.14844
-0.22461
0
0.080078
0.099609
0.089844
0.099609
0.11133
0.10547
0.10547
0.11133
0.10547
0.10547
0.11133
0.125
0.13086
0.13086
0.14063
0.14453
0.14063
0.13477
0.15039
0.16016
0.15039
0.17578
0.17969
0.20117
0.21484
0.23047
0.24609
0.27539
0.28516
0.29102
0.27539
0.26563
0.25586
0.23438
0.21094
0.18945
0.17578
0.17969
0.17578
0.17578
0.17969
0.18945
0.17578
0.17969
0.17578
0.17578
0.16992
0.17578
0.16602
0.16016
0.16602
0.17578
0.17969
0.17578
0.17578
0.16992
0.16992
0.17578
0.16602
0.16016
0.16602
0.16602
0.17578
0.17578
0.17578
0.17578
0.17969
0.17578
0.16992
0.16602
0.17578
0.17969
0.17578
0.17969
0.17578
0.17578
0.16992
0.16992
0.17578
0.17578
0.17578
0.18555
0.18945
0.17578
0.16992
0.18945
0.23047
0.25977
0.26953
0.25977
0.31445
0.36523
0.3457
0.31055
0.27539
0.25
0.23047
0.20508
0.16016
0.14063
0.13477
0.15039
0.15039
0.13477
0.10547
0.16602
0.33984
0.6543
1.1191
1.2344
0.29492
-0.18945
-0.083984
0.044922
0.11133
0.12109
0.11133
0.12109
0.12109
0.13086
0.125
0.14063
0.14453
0.13477
0.14453
0.16992
0.15039
0.14063
0.15039
0.17578
0.17578
0.16992
0.17578
0.17969
0.19531
0.20508
0.21484
0.21094
0.23438
0.25
0.26563
0.27539
0.28516
0.29102
0.28516
0.26953
0.25
0.22461
0.20508
0.20117
0.20508
0.18555
0.17969
0.18945
0.19531
0.20117
0.18555
0.17578
0.17578
0.17969
0.17578
0.17969
0.17969
0.18555
0.18945
0.17578
0.18945
0.19531
0.20117
0.20117
0.19531
0.18945
0.18555
0.20117
0.18945
0.18555
0.17578
0.17578
0.17969
0.18945
0.18555
0.17969
0.18555
0.18945
0.18945
0.20117
0.18555
0.17969
0.20117
0.18945
0.19531
0.20117
0.21484
0.20508
0.20117
0.18555
0.17969
0.18555
0.2207
0.25977
0.2793
0.26953
0.32031
0.36523
0.37109
0.3457
0.32031
0.26953
0.24609
0.22461
0.18945
0.17578
0.16016
0.16016
0.15039
0.15039
0.15625
0.17969
0.32422
0.5957
1.0547
1.25
0.55078
-0.099609
-0.18359
0.025391
0.099609
0.12109
0.11523
0.12109
0.12109
0.11523
0.125
0.13086
0.13477
0.14453
0.15625
0.16602
0.16992
0.16602
0.15625
0.16602
0.18945
0.17578
0.17578
0.17578
0.16992
0.19531
0.20508
0.21484
0.21094
0.24023
0.26563
0.2793
0.29102
0.29492
0.28516
0.29102
0.27539
0.24609
0.2207
0.20117
0.18945
0.18555
0.17969
0.18945
0.20117
0.17969
0.17578
0.17578
0.18555
0.20508
0.17969
0.17578
0.17969
0.18945
0.20117
0.19531
0.17578
0.17969
0.17578
0.17578
0.17578
0.17969
0.16992
0.17578
0.16992
0.15625
0.16602
0.15625
0.17578
0.17578
0.17578
0.17578
0.17578
0.16992
0.16602
0.16016
0.16602
0.16992
0.16992
0.17578
0.17578
0.17578
0.17578
0.17578
0.17578
0.19531
0.19531
0.20508
0.23438
0.26563
0.25
0.29492
0.3457
0.33984
0.32422
0.29492
0.26563
0.25
0.24023
0.18945
0.15039
0.13086
0.13477
0.13477
0.13086
0.12109
0.14453
0.29102
0.53516
0.93555
1.2598
0.67578
-0.083984
-0.21875
-0.013672
0.070313
0.125
0.10547
0.099609
0.11133
0.125
0.13086
0.11523
0.12109
0.125
0.125
0.13086
0.15039
0.14453
0.15039
0.15625
0.15039
0.16016
0.15039
0.16602
0.17969
0.17969
0.17578
0.20117
0.21484
0.22461
0.24609
0.26563
0.28516
0.29492
0.28516
0.27539
0.26563
0.23438
0.20508
0.20117
0.17578
0.17969
0.16992
0.17578
0.15625
0.15039
0.18945
0.18555
0.18945
0.17578
0.18945
0.19531
0.17578
0.17578
0.18555
0.17578
0.16992
0.18555
0.17969
0.17578
0.16992
0.16992
0.17578
0.17578
0.17578
0.17969
0.15625
0.15039
0.17578
0.15039
0.16602
0.17578
0.17578
0.17578
0.16992
0.17578
0.17578
0.16602
0.16016
0.17578
0.17578
0.16992
0.16602
0.18555
0.17969
0.17578
0.17969
0.18945
0.22461
0.26563
0.25
0.30469
0.35547
0.33984
0.33008
0.30469
0.25
0.22461
0.20508
0.16992
0.15625
0.14063
0.125
0.13086
0.14453
0.13086
0.125
0.25
0.4707
0.86914
1.209
0.6543
-0.099609
-0.21484
-0.0039063
0.076172
0.095703
0.10547
0.10547
0.12109
0.11523
0.10547
0.10547
0.11523
0.13086
0.125
0.125
0.13477
0.14063
0.14063
0.15039
0.15625
0.15039
0.16016
0.16992
0.15625
0.16602
0.17578
0.20117
0.21484
0.23438
0.25586
0.26953
0.26953
0.27539
0.2793
0.26563
0.23438
0.21484
0.20117
0.19531
0.17969
0.17578
0.16992
0.17578
0.15039
0.15039
0.16992
0.17578
0.16602
0.17578
0.16602
0.15625
0.16016
0.16016
0.16016
0.16992
0.15625
0.15625
0.16992
0.17969
0.16602
0.17578
0.16016
0.16602
0.17578
0.16016
0.15039
0.15039
0.15039
0.16016
0.16602
0.16016
0.15039
0.16016
0.15625
0.15625
0.15625
0.15625
0.16016
0.16992
0.17969
0.17578
0.17578
0.16992
0.17578
0.16602
0.18945
0.24023
0.26563
0.23047
0.27539
0.32422
0.33594
0.31445
0.31055
0.25586
0.22461
0.22461
0.16992
0.13086
0.13086
0.11523
0.10547
0.11133
0.12109
0.13477
0.24609
0.43945
0.84375
1.209
0.73047
-0.035156
-0.19922
-0.035156
0.050781
0.080078
0.085938
0.095703
0.099609
0.095703
0.11523
0.12109
0.13086
0.13086
0.11523
0.12109
0.13086
0.14063
0.14063
0.13477
0.15039
0.16016
0.15625
0.16016
0.16602
0.17578
0.17578
0.18945
0.18555
0.22461
0.24609
0.25586
0.26953
0.27539
0.29102
0.25977
0.22461
0.2207
0.19531
0.18555
0.18945
0.18555
0.16602
0.14453
0.16602
0.17969
0.16602
0.16602
0.16016
0.16602
0.17969
0.17578
0.17578
0.17578
0.16602
0.16992
0.17578
0.16992
0.16602
0.17578
0.16016
0.16992
0.16602
0.16602
0.17578
0.16992
0.16602
0.17578
0.16992
0.15039
0.15039
0.15625
0.16602
0.16992
0.16602
0.16992
0.16016
0.16602
0.15039
0.16602
0.17969
0.17578
0.17578
0.18555
0.17578
0.16992
0.21484
0.23047
0.26563
0.24609
0.30078
0.33984
0.32031
0.31445
0.29102
0.24609
0.23438
0.20508
0.15625
0.14063
0.14063
0.13477
0.125
0.13086
0.13086
0.16992
0.30078
0.5957
1.0645
1.25
0.4707
-0.1543
-0.19336
0.015625
0.070313
0.095703
0.10547
0.12109
0.11523
0.099609
0.11133
0.125
0.12109
0.125
0.13477
0.14453
0.14453
0.14453
0.14453
0.14063
0.14063
0.16992
0.16992
0.16992
0.17578
0.16992
0.19531
0.20117
0.21094
0.22461
0.23438
0.25586
0.26953
0.2793
0.28516
0.24023
0.23047
0.22461
0.21094
0.17578
0.17969
0.18555
0.17578
0.16992
0.17578
0.17578
0.17578
0.16602
0.16602
0.16016
0.18555
0.19531
0.17969
0.17578
0.17969
0.17578
0.16992
0.16602
0.17578
0.17578
0.17969
0.16992
0.17578
0.17969
0.16602
0.16016
0.17578
0.16992
0.16992
0.17578
0.17578
0.16992
0.16602
0.16992
0.18555
0.17969
0.17578
0.17578
0.17578
0.17578
0.16992
0.18555
0.18555
0.19531
0.17578
0.17578
0.17969
0.20508
0.22461
0.26563
0.24609
0.30078
0.34961
0.36523
0.33984
0.31445
0.25
0.23438
0.21094
0.18555
0.15039
0.14063
0.13477
0.13086
0.14063
0.13477
0.13086
0.25977
0.48047
0.89453
1.2441
0.69922
-0.064453
-0.19336
0
0.089844
0.12109
0.11133
0.10547
0.125
0.13086
0.14453
0.13477
0.125
0.13477
0.15039
0.14063
0.13477
0.15039
0.14453
0.16016
0.16602
0.17578
0.18555
0.18945
0.20117
0.20117
0.21094
0.22461
0.22461
0.24609
0.26953
0.29492
0.30078
0.30469
0.29492
0.28516
0.26563
0.24609
0.2207
0.20508
0.19531
0.21094
0.21094
0.20117
0.20117
0.20508
0.21484
0.18945
0.19531
0.20117
0.17969
0.17578
0.20117
0.19531
0.17969
0.19531
0.20117
0.18945
0.19531
0.19531
0.20117
0.19531
0.18555
0.17578
0.17969
0.18945
0.18945
0.20117
0.17969
0.17578
0.17969
0.20508
0.19531
0.18555
0.17969
0.18945
0.18555
0.17969
0.18945
0.18945
0.17969
0.17578
0.18555
0.20117
0.20508
0.19531
0.19531
0.20117
0.22461
0.25
0.2793
0.2793
0.32031
0.35547
0.35938
0.35938
0.33008
0.26563
0.24023
0.2207
0.17578
0.16016
0.15039
0.15039
0.15039
0.15039
0.13086
0.16016
0.29102
0.50977
0.9043
1.2285
0.67578
-0.064453
-0.19922
0.015625
0.080078
0.12109
0.13477
0.13086
0.13477
0.14453
0.13477
0.15039
0.16016
0.15625
0.15039
0.15039
0.16016
0.16602
0.17578
0.16602
0.17578
0.19531
0.20117
0.20117
0.21484
0.2207
0.2207
0.2207
0.24023
0.26953
0.26953
0.26953
0.29492
0.31055
0.30078
0.30469
0.2793
0.25977
0.23047
0.21094
0.20508
0.21484
0.22461
0.17969
0.17578
0.19531
0.18945
0.18555
0.19531
0.21484
0.20508
0.20508
0.20117
0.2207
0.22461
0.20508
0.21094
0.22461
0.19531
0.17578
0.18945
0.20117
0.19531
0.20117
0.20508
0.20117
0.20117
0.21094
0.18945
0.18555
0.20117
0.17969
0.18945
0.20117
0.18945
0.2207
0.23047
0.20117
0.19531
0.20117
0.19531
0.20508
0.20508
0.20508
0.20508
0.21094
0.21094
0.24609
0.26953
0.27539
0.28516
0.33008
0.37109
0.36523
0.33984
0.32031
0.2793
0.27539
0.24023
0.18555
0.18945
0.17969
0.16992
0.15625
0.16016
0.14453
0.20508
0.33594
0.61523
1.1094
1.2793
0.49414
-0.125
-0.18359
0.035156
0.095703
0.13086
0.14063
0.15039
0.14453
0.14063
0.16602
0.16016
0.15039
0.16602
0.17578
0.16992
0.17969
0.17969
0.17578
0.18945
0.19531
0.20117
0.20117
0.20508
0.20117
0.21094
0.20508
0.23438
0.24609
0.24609
0.26563
0.29492
0.31055
0.31055
0.29492
0.27539
0.25977
0.23438
0.22461
0.20508
0.20117
0.19531
0.18945
0.18945
0.19531
0.20117
0.18945
0.17578
0.18945
0.20117
0.20117
0.18555
0.17578
0.16992
0.20117
0.19531
0.20117
0.20508
0.20117
0.17969
0.16016
0.16992
0.17578
0.17578
0.17578
0.17578
0.16992
0.16602
0.17578
0.17969
0.19531
0.17578
0.17578
0.17969
0.17578
0.18945
0.17969
0.16992
0.16602
0.17578
0.17578
0.17578
0.18555
0.17969
0.16992
0.18555
0.20508
0.25
0.26563
0.24609
0.2793
0.33594
0.34961
0.33594
0.30078
0.26563
0.24023
0.21094
0.16602
0.14063
0.125
0.125
0.125
0.125
0.13086
0.15625
0.27539
0.52539
0.96875
1.2598
0.66016
-0.10938
-0.21875
-0.025391
0.054688
0.085938
0.099609
0.10547
0.11523
0.12109
0.095703
0.10547
0.11133
0.11133
0.125
0.13086
0.13477
0.14063
0.13086
0.14453
0.15039
0.14453
0.15039
0.15039
0.16602
0.16016
0.17578
0.17578
0.19531
0.21094
0.24023
0.25586
0.26953
0.26563
0.25977
0.25977
0.24609
0.21484
0.18555
0.16992
0.16016
0.15625
0.15625
0.16016
0.16016
0.17969
0.18555
0.14453
0.14063
0.15039
0.16602
0.16992
0.16016
0.16016
0.16016
0.16992
0.17969
0.16602
0.16016
0.15039
0.15039
0.15039
0.14063
0.16016
0.23047
0.24609
0.13477
0.10547
0.13086
0.13086
0.14063
0.16016
0.16992
0.15625
0.17578
0.17578
0.15625
0.15039
0.16016
0.16992
0.14063
0.15625
0.16992
0.17578
0.17578
0.19531
0.22461
0.26563
0.30469
0.39453
0.41992
0.29102
0.26953
0.31445
0.22461
0.26563
0.2793
0.21484
0.33984
0.25977
0.30469
0.32031
0.0058594
0.064453
0.10547
0.076172
0.375
1.0645
1.5
0.94922
0.095703
-0.30469
-0.37891
-0.0097656
0.054688
0.041016
0.41602
0.60938
0.45508
0.33008
-0.1543
-0.35938
-0.064453
-0.0097656
0.050781
0.33008
