0.65039
0.64063
0.64063
0.63477
0.62891
0.625
0.625
0.61914
0.61914
0.61523
0.60938
0.60938
0.60547
0.60547
0.60547
0.60938
0.61523
0.62891
0.64063
0.6543
0.66992
0.68555
0.69531
0.70898
0.7207
0.73047
0.74023
0.74414
0.74023
0.73438
0.73047
0.72461
0.72461
0.7207
0.7207
0.71484
0.71484
0.71484
0.71484
0.71484
0.70898
0.70508
0.70508
0.70508
0.70508
0.70898
0.70898
0.70898
0.71484
0.71484
0.71484
0.71484
0.71484
0.71484
0.71484
0.7207
0.7207
0.72461
0.72461
0.72461
0.72461
0.72461
0.72461
0.72461
0.72461
0.72461
0.72461
0.73438
0.75391
0.7793
0.78906
0.79492
0.77539
0.73438
0.69531
0.67969
0.67578
0.67578
0.67969
0.68555
0.68945
0.69531
0.69531
0.69922
0.70508
0.70508
0.70898
0.70898
0.70898
0.70898
0.7207
0.75
0.84375
0.91992
0.82031
0.58398
0.44531
0.48438
0.58984
0.68555
0.82031
0.98438
1.1035
1.125
0.98047
0.82422
0.72461
0.68945
0.67969
0.66992
0.66016
0.66016
0.6543
0.65039
0.65039
0.64063
0.64063
0.64063
0.63477
0.62891
0.62891
0.62891
0.62891
0.62891
0.62891
0.64063
0.6543
0.66992
0.67969
0.68945
0.69922
0.70898
0.7207
0.72461
0.73047
0.74023
0.74414
0.74023
0.73438
0.73438
0.72461
0.72461
0.7207
0.71484
0.71484
0.70508
0.70508
0.70508
0.70508
0.70508
0.70508
0.70508
0.70508
0.70508
0.70508
0.70508
0.70508
0.70508
0.70898
0.71484
0.71484
0.71484
0.71484
0.7207
0.7207
0.7207
0.72461
0.72461
0.72461
0.72461
0.72461
0.72461
0.72461
0.72461
0.72461
0.73047
0.74023
0.75977
0.7793
0.78906
0.78516
0.75977
0.71484
0.67969
0.66992
0.66992
0.66992
0.66992
0.67969
0.68555
0.69531
0.69922
0.69922
0.70508
0.70898
0.71484
0.71484
0.71484
0.71484
0.72461
0.7793
0.87891
0.91016
0.73047
0.5
0.43555
0.53516
0.6543
0.77539
0.91992
1.0801
1.1699
1.1152
0.95508
0.79492
0.70508
0.67969
0.66992
0.66016
0.6543
0.64453
0.64063
0.63477
0.63477
0.63477
0.62891
0.62891
0.625
0.61914
0.61914
0.61523
0.61523
0.61523
0.61523
0.625
0.63477
0.65039
0.66406
0.67578
0.68555
0.69922
0.71484
0.7207
0.73047
0.74023
0.74414
0.74414
0.74023
0.73438
0.73047
0.72461
0.7207
0.7207
0.7207
0.7207
0.71484
0.71484
0.70898
0.70898
0.70898
0.70898
0.71484
0.71484
0.71484
0.71484
0.71484
0.71484
0.7207
0.7207
0.72461
0.72461
0.72461
0.73047
0.73438
0.73438
0.73047
0.73047
0.72461
0.73047
0.73047
0.73047
0.73438
0.73438
0.73438
0.73438
0.73438
0.75391
0.77539
0.78906
0.79492
0.7793
0.74414
0.70898
0.68555
0.67969
0.67969
0.67578
0.67578
0.68555
0.69531
0.69922
0.69922
0.69922
0.70508
0.70508
0.70898
0.70898
0.70898
0.71484
0.74023
0.82031
0.9043
0.83984
0.61914
0.44922
0.43945
0.5957
0.70508
0.82031
0.96875
1.1094
1.1543
1.0586
0.89453
0.75391
0.68945
0.67578
0.66016
0.6543
0.65039
0.65039
0.64453
0.64063
0.63477
0.63477
0.62891
0.62891
0.625
0.61914
0.61523
0.61523
0.61523
0.61523
0.625
0.63477
0.65039
0.66406
0.67969
0.69531
0.70898
0.7207
0.73047
0.74023
0.74414
0.75
0.75
0.74414
0.74023
0.73438
0.72461
0.72461
0.7207
0.7207
0.71484
0.71484
0.70898
0.70508
0.70508
0.70508
0.70508
0.70508
0.70508
0.70508
0.70508
0.70508
0.70898
0.70898
0.71484
0.71484
0.7207
0.7207
0.7207
0.7207
0.7207
0.7207
0.72461
0.72461
0.72461
0.72461
0.73047
0.73047
0.73438
0.73438
0.73438
0.74023
0.75977
0.7793
0.78906
0.79492
0.77539
0.73438
0.69531
0.67578
0.67578
0.66992
0.66992
0.67578
0.68555
0.68945
0.69531
0.69531
0.69922
0.70508
0.70898
0.70898
0.71484
0.71484
0.7207
0.75391
0.85547
0.91992
0.80469
0.56445
0.43945
0.49023
0.60547
0.71484
0.85547
1.0254
1.1387
1.1484
0.98438
0.82031
0.70898
0.66992
0.66016
0.65039
0.64063
0.64063
0.64063
0.63477
0.63477
0.62891
0.62891
0.62891
0.625
0.61914
0.61914
0.61523
0.60938
0.60938
0.60938
0.61914
0.62891
0.64063
0.6543
0.66406
0.67969
0.69531
0.70508
0.7207
0.72461
0.74023
0.74023
0.74023
0.74023
0.73438
0.72461
0.7207
0.7207
0.71484
0.71484
0.70898
0.70508
0.70508
0.70508
0.70508
0.70508
0.70508
0.70508
0.70508
0.70508
0.70508
0.70898
0.70898
0.71484
0.71484
0.71484
0.71484
0.71484
0.71484
0.71484
0.71484
0.71484
0.71484
0.7207
0.7207
0.7207
0.7207
0.7207
0.7207
0.7207
0.72461
0.74023
0.75977
0.77539
0.78516
0.7793
0.74414
0.70898
0.67969
0.66992
0.66992
0.66992
0.66992
0.67969
0.68555
0.69531
0.69922
0.69922
0.69922
0.70508
0.70508
0.70508
0.70508
0.70508
0.72461
0.78516
0.87891
0.90039
0.68945
0.47461
0.42578
0.53906
0.66016
0.7793
0.92969
1.084
1.1641
1.1035
0.94531
0.78516
0.69531
0.66992
0.6543
0.65039
0.64063
0.63477
0.63477
0.62891
0.625
0.61914
0.61914
0.61523
0.61523
0.60938
0.60547
0.5957
0.5957
0.5957
0.5957
0.60547
0.61523
0.62891
0.64453
0.6543
0.67578
0.68555
0.69922
0.70898
0.72461
0.73438
0.73438
0.73438
0.73047
0.72461
0.7207
0.7207
0.7207
0.71484
0.70898
0.70898
0.70508
0.70508
0.70508
0.69922
0.69531
0.69531
0.69531
0.69922
0.69922
0.69922
0.70508
0.70508
0.70508
0.70508
0.70898
0.70898
0.71484
0.71484
0.71484
0.7207
0.7207
0.7207
0.7207
0.72461
0.7207
0.7207
0.7207
0.72461
0.72461
0.74023
0.75977
0.7793
0.78906
0.7793
0.75
0.70898
0.67578
0.66992
0.66992
0.66992
0.66992
0.67969
0.68555
0.68945
0.69531
0.69922
0.69922
0.70508
0.70508
0.70508
0.70898
0.71484
0.72461
0.78516
0.88477
0.91406
0.70898
0.49414
0.44922
0.54492
0.64453
0.74414
0.88867
1.0488
1.125
1.0645
0.91406
0.76953
0.69531
0.67578
0.66016
0.6543
0.65039
0.64453
0.64063
0.64063
0.63477
0.63477
0.63477
0.63477
0.62891
0.62891
0.62891
0.625
0.625
0.62891
0.63477
0.64453
0.66016
0.66992
0.67969
0.68945
0.69922
0.70508
0.71484
0.72461
0.73047
0.73438
0.74023
0.73438
0.73047
0.72461
0.7207
0.71484
0.71484
0.70898
0.70508
0.70508
0.69922
0.69922
0.69922
0.69531
0.69531
0.69531
0.69922
0.69922
0.69922
0.69922
0.69922
0.69922
0.70508
0.70508
0.70898
0.70898
0.70898
0.71484
0.71484
0.71484
0.71484
0.71484
0.71484
0.71484
0.71484
0.71484
0.71484
0.71484
0.71484
0.7207
0.73438
0.75977
0.7793
0.78516
0.7793
0.74414
0.69922
0.67578
0.66016
0.66016
0.66406
0.66406
0.67578
0.68555
0.68555
0.68945
0.69531
0.69922
0.69922
0.70508
0.70508
0.70508
0.70898
0.73047
0.79883
0.90039
0.91406
0.66992
0.46484
0.43555
0.55469
0.66406
0.78906
0.95508
1.1035
1.1543
1.0547
0.88867
0.75
0.68945
0.66406
0.6543
0.65039
0.64063
0.63477
0.63477
0.62891
0.62891
0.625
0.61914
0.61523
0.61523
0.61523
0.60938
0.60547
0.60547
0.60547
0.60938
0.61914
0.62891
0.64063
0.65039
0.66406
0.67969
0.69531
0.70508
0.7207
0.73047
0.73438
0.74023
0.74023
0.73438
0.72461
0.72461
0.7207
0.71484
0.71484
0.70898
0.70898
0.70898
0.70898
0.70898
0.70898
0.70898
0.70898
0.70898
0.70898
0.70898
0.70898
0.70898
0.71484
0.71484
0.71484
0.7207
0.72461
0.72461
0.72461
0.72461
0.72461
0.72461
0.72461
0.72461
0.72461
0.72461
0.72461
0.72461
0.72461
0.72461
0.73047
0.73438
0.74023
0.75391
0.77539
0.78516
0.78906
0.76563
0.73047
0.69531
0.67578
0.67578
0.67578
0.67578
0.67969
0.68945
0.69531
0.69922
0.70508
0.70898
0.71484
0.71484
0.7207
0.7207
0.7207
0.73047
0.7793
0.875
0.9043
0.74414
0.51953
0.44531
0.53516
0.6543
0.75391
0.88867
1.0488
1.1543
1.1602
0.98047
0.81445
0.71484
0.67969
0.66992
0.66016
0.65039
0.65039
0.64453
0.64063
0.63477
0.63477
0.62891
0.62891
0.625
0.61914
0.61914
0.61523
0.60938
0.60938
0.61523
0.625
0.64063
0.6543
0.66992
0.67969
0.69531
0.70898
0.7207
0.73438
0.74414
0.75
0.75391
0.75
0.74414
0.74023
0.73438
0.73438
0.73047
0.7207
0.7207
0.71484
0.71484
0.70898
0.70508
0.70508
0.70508
0.69922
0.69922
0.69922
0.69922
0.69922
0.70508
0.70508
0.70508
0.70508
0.70898
0.70898
0.70898
0.70898
0.70898
0.70898
0.70898
0.70898
0.70898
0.70898
0.70898
0.70898
0.71484
0.71484
0.71484
0.71484
0.71484
0.72461
0.74414
0.76563
0.78516
0.78906
0.76953
0.73047
0.69531
0.66992
0.66406
0.66406
0.66406
0.66992
0.67578
0.67969
0.67969
0.68945
0.69531
0.69922
0.69922
0.69922
0.69922
0.69922
0.70898
0.75
0.84961
0.91406
0.79492
0.56055
0.43945
0.49023
0.60547
0.70898
0.85547
1.0195
1.1289
1.1348
0.95508
0.79492
0.69531
0.66406
0.65039
0.64063
0.64063
0.63477
0.62891
0.62891
0.625
0.61914
0.61914
0.61523
0.61523
0.61523
0.60938
0.60547
0.60547
0.60547
0.60547
0.60938
0.61523
0.62891
0.64063
0.6543
0.66406
0.67969
0.69531
0.70898
0.7207
0.72461
0.73438
0.73438
0.72461
0.7207
0.71484
0.71484
0.70898
0.70508
0.69922
0.69922
0.69922
0.69922
0.69922
0.69922
0.69922
0.69922
0.69922
0.69922
0.69922
0.69922
0.69922
0.70508
0.70508
0.70898
0.70898
0.70898
0.71484
0.71484
0.71484
0.71484
0.71484
0.71484
0.71484
0.71484
0.71484
0.71484
0.71484
0.71484
0.7207
0.7207
0.71484
0.7207
0.73438
0.75977
0.77539
0.78516
0.77539
0.74414
0.70898
0.67969
0.66992
0.66992
0.66992
0.66992
0.67578
0.68555
0.68555
0.69531
0.69531
0.69922
0.69922
0.69922
0.70508
0.70508
0.70898
0.73438
0.79883
0.88867
0.89453
0.62891
0.44531
0.42969
0.58008
0.69922
0.82031
0.96875
1.1152
1.1738
1.084
0.91406
0.76953
0.69531
0.67578
0.66016
0.6543
0.64453
0.64063
0.63477
0.62891
0.62891
0.62891
0.61914
0.61914
0.61523
0.61523
0.60938
0.60547
0.60547
0.60547
0.60547
0.61523
0.62891
0.64063
0.6543
0.66992
0.68945
0.70508
0.7207
0.73047
0.74023
0.75
0.75
0.74414
0.74023
0.74023
0.73438
0.73438
0.73438
0.73047
0.72461
0.72461
0.7207
0.7207
0.7207
0.71484
0.71484
0.71484
0.71484
0.70898
0.70898
0.70898
0.71484
0.71484
0.7207
0.7207
0.7207
0.72461
0.72461
0.72461
0.72461
0.73047
0.73438
0.73438
0.73438
0.74023
0.75391
0.77539
0.78906
0.80469
0.79492
0.76953
0.73047
0.68945
0.66992
0.66016
0.66016
0.66406
0.67578
0.67969
0.68555
0.68945
0.69531
0.69531
0.69922
0.69922
0.70508
0.70508
0.70508
0.73047
0.79883
0.9043
0.92383
0.69531
0.49023
0.44922
0.55078
0.6543
0.76953
0.93555
1.084
1.1387
1.0449
0.88477
0.75391
0.69531
0.67969
0.66992
0.6543
0.65039
0.64453
0.64063
0.63477
0.63477
0.62891
0.625
0.61914
0.61523
0.60938
0.60547
0.60547
0.60547
0.60547
0.60938
0.61914
0.62891
0.64063
0.6543
0.66992
0.67969
0.69531
0.70898
0.7207
0.73047
0.74023
0.74414
0.74023
0.74023
0.73438
0.73047
0.72461
0.7207
0.7207
0.7207
0.72461
0.71484
0.71484
0.70898
0.70898
0.70898
0.70898
0.70898
0.70898
0.70898
0.70898
0.71484
0.71484
0.71484
0.71484
0.71484
0.71484
0.71484
0.71484
0.71484
0.71484
0.71484
0.71484
0.71484
0.71484
0.71484
0.71484
0.7207
0.7207
0.7207
0.7207
0.7207
0.7207
0.7207
0.7207
0.7207
0.7207
0.7207
0.7207
0.71484
0.70508
0.68945
0.68945
0.69922
0.70508
0.70508
0.70508
0.70898
0.71484
0.7207
0.7207
0.7207
0.72461
0.75
0.82031
0.91016
0.91406
0.64453
0.46484
0.44531
0.58984
0.69922
0.81445
0.96484
1.1094
1.1699
1.084
0.91406
0.77539
0.70508
0.68555
0.67578
0.66406
0.6543
0.65039
0.65039
0.64453
0.64063
0.63477
0.62891
0.62891
0.61914
0.61523
0.60938
0.60938
0.60547
0.60938
0.60938
0.61914
0.62891
0.65039
0.66016
0.67578
0.69531
0.70898
0.7207
0.73438
0.74023
0.75
0.75
0.75
0.74414
0.74023
0.73047
0.72461
0.72461
0.72461
0.7207
0.7207
0.7207
0.7207
0.7207
0.7207
0.7207
0.7207
0.71484
0.71484
0.7207
0.7207
0.7207
0.7207
0.72461
0.72461
0.72461
0.73047
0.73438
0.73438
0.73438
0.73438
0.73438
0.73438
0.73438
0.73438
0.73438
0.73047
0.73438
0.73047
0.73047
0.73047
0.73047
0.73047
0.73047
0.73047
0.73438
0.73047
0.72461
0.72461
0.72461
0.7207
0.7207
0.7207
0.72461
0.74023
0.76563
0.78516
0.78906
0.7793
0.74414
0.70508
0.67969
0.67578
0.66992
0.66992
0.66992
0.67969
0.68555
0.68555
0.69531
0.69922
0.69922
0.69922
0.70508
0.70508
0.70508
0.71484
0.75977
0.86523
0.92969
0.80469
0.56445
0.43945
0.48438
0.5957
0.69922
0.84375
1.0098
1.1191
1.125
0.94922
0.79492
0.69922
0.66992
0.66016
0.65039
0.64063
0.64063
0.63477
0.63477
0.63477
0.62891
0.61914
0.61914
0.61523
0.61523
0.60938
0.60938
0.60547
0.60547
0.60547
0.60938
0.61523
0.625
0.64063
0.6543
0.66992
0.67969
0.69531
0.70898
0.7207
0.73047
0.73438
0.73438
0.73438
0.72461
0.7207
0.71484
0.71484
0.71484
0.70898
0.70508
0.69922
0.69922
0.69922
0.69531
0.69531
0.69922
0.69922
0.69531
0.69531
0.69531
0.69922
0.69922
0.69922
0.70508
0.70508
0.70508
0.70508
0.70508
0.70898
0.70898
0.70898
0.70898
0.70898
0.70898
0.70898
0.70898
0.70898
0.70898
0.70898
0.70898
0.70898
0.7207
0.73438
0.75391
0.76953
0.7793
0.76563
0.73438
0.69531
0.66992
0.66016
0.66016
0.66406
0.66016
0.67578
0.68555
0.68945
0.69531
0.69922
0.69922
0.70508
0.70508
0.70898
0.70508
0.71484
0.74414
0.83008
0.90039
0.81055
0.58008
0.43555
0.48438
0.60938
0.7207
0.83984
1
1.1289
1.1641
1.0352
0.86523
0.73438
0.67969
0.66016
0.65039
0.64453
0.64063
0.63477
0.63477
0.63477
0.62891
0.62891
0.625
0.61914
0.61523
0.60938
0.60547
0.5957
0.5957
0.5957
0.59961
0.60938
0.61914
0.63477
0.6543
0.66992
0.67969
0.69531
0.70898
0.72461
0.73438
0.74023
0.74414
0.74023
0.73438
0.73047
0.72461
0.7207
0.7207
0.7207
0.71484
0.71484
0.70898
0.70898
0.70508
0.70508
0.70508
0.70508
0.70508
0.70508
0.70508
0.70508
0.71484
0.71484
0.7207
0.7207
0.72461
0.72461
0.72461
0.73047
0.73047
0.73047
0.73047
0.73438
0.73438
0.73047
0.73047
0.73047
0.73047
0.73047
0.73438
0.74023
0.75977
0.7793
0.79492
0.79883
0.7793
0.74023
0.69922
0.67969
0.67578
0.67578
0.67578
0.67969
0.68555
0.69531
0.69531
0.69922
0.70508
0.70508
0.70898
0.70898
0.70898
0.70898
0.7207
0.75977
0.85938
0.92383
0.81055
0.58008
0.44531
0.48438
0.5957
0.69922
0.83984
1.0098
1.125
1.1289
0.95508
0.79883
0.70508
0.67578
0.66406
0.6543
0.6543
0.6543
0.65039
0.64453
0.64453
0.64063
0.63477
0.63477
0.62891
0.62891
0.61914
0.61914
0.61523
0.61523
0.61523
0.61914
0.62891
0.64063
0.65039
0.66016
0.67578
0.68945
0.69922
0.71484
0.7207
0.73047
0.73438
0.73438
0.73047
0.72461
0.7207
0.71484
0.71484
0.70898
0.70508
0.70508
0.70508
0.70508
0.69922
0.69922
0.69922
0.69922
0.69922
0.69922
0.70508
0.70508
0.70508
0.70508
0.70508
0.70898
0.70898
0.71484
0.71484
0.71484
0.71484
0.71484
0.7207
0.7207
0.7207
0.7207
0.7207
0.7207
0.72461
0.72461
0.72461
0.72461
0.73438
0.75
0.76563
0.78516
0.78906
0.77539
0.74023
0.70508
0.67969
0.67578
0.67578
0.67578
0.67578
0.68555
0.68945
0.69531
0.69531
0.69922
0.69922
0.70508
0.70898
0.70898
0.70898
0.71484
0.74414
0.82422
0.91016
0.83398
0.59961
0.44531
0.43555
0.59961
0.70898
0.83398
1
1.1348
1.1641
1.0449
0.86914
0.74023
0.68555
0.66406
0.6543
0.65039
0.65039
0.64453
0.64063
0.64063
0.63477
0.62891
0.62891
0.61914
0.61523
0.60938
0.60938
0.60547
0.59961
0.5957
0.5957
0.60938
0.61914
0.63477
0.6543
0.66992
0.68555
0.69922
0.7207
0.73438
0.74023
0.74414
0.75
0.75
0.74414
0.73438
0.73438
0.73438
0.73438
0.73047
0.72461
0.7207
0.7207
0.71484
0.71484
0.71484
0.71484
0.71484
0.71484
0.71484
0.71484
0.7207
0.7207
0.72461
0.72461
0.73047
0.73438
0.73438
0.73438
0.74023
0.73438
0.73438
0.73438
0.73438
0.73438
0.73438
0.73438
0.74023
0.73438
0.73047
0.73047
0.73047
0.73438
0.74414
0.75977
0.7793
0.79883
0.81055
0.78906
0.75391
0.71484
0.69531
0.68945
0.68945
0.68555
0.68945
0.69531
0.69922
0.69922
0.70508
0.70898
0.71484
0.71484
0.71484
0.7207
0.7207
0.72461
0.76563
0.86523
0.92969
0.82422
0.58398
0.44922
0.49414
0.59961
0.69531
0.83008
1
1.1191
1.1289
0.97461
0.82031
0.72461
0.68555
0.67578
0.66992
0.66406
0.66016
0.6543
0.6543
0.65039
0.6543
0.65039
0.64063
0.64063
0.63477
0.63477
0.62891
0.62891
0.625
0.625
0.63477
0.64453
0.6543
0.66016
0.66992
0.67969
0.69531
0.70898
0.7207
0.73047
0.73438
0.74023
0.73438
0.73047
0.72461
0.7207
0.7207
0.71484
0.70898
0.70508
0.70508
0.69922
0.69531
0.69531
0.68555
0.68555
0.68555
0.68945
0.69531
0.69531
0.69531
0.69531
0.69531
0.69922
0.69922
0.70508
0.70508
0.70508
0.70508
0.70508
0.70508
0.70898
0.70898
0.70508
0.70508
0.70898
0.70898
0.70898
0.70508
0.70898
0.70508
0.70508
0.70508
0.71484
0.73047
0.74414
0.76563
0.7793
0.77539
0.74414
0.70898
0.67578
0.66016
0.66016
0.66016
0.66016
0.66992
0.67969
0.68555
0.68945
0.69531
0.69531
0.69531
0.69531
0.69922
0.69922
0.70508
0.73047
0.79883
0.89453
0.9043
0.66016
0.46094
0.42969
0.55469
0.66992
0.78906
0.94531
1.0938
1.1543
1.0586
0.88867
0.75
0.67969
0.66406
0.6543
0.65039
0.64453
0.64063
0.64063
0.64063
0.63477
0.62891
0.62891
0.61914
0.61523
0.61523
0.60938
0.60547
0.5957
0.5957
0.5957
0.60547
0.61523
0.625
0.64063
0.6543
0.66992
0.68555
0.69922
0.71484
0.72461
0.73438
0.74023
0.74414
0.74023
0.73047
0.72461
0.7207
0.7207
0.7207
0.7207
0.71484
0.71484
0.71484
0.71484
0.70898
0.70508
0.70508
0.70508
0.70508
0.70898
0.70898
0.70898
0.71484
0.71484
0.71484
0.71484
0.7207
0.7207
0.7207
0.7207
0.7207
0.72461
0.72461
0.73047
0.72461
0.72461
0.72461
0.72461
0.73047
0.73047
0.73047
0.73047
0.73047
0.73438
0.75
0.77539
0.78516
0.79492
0.79883
0.75977
0.7207
0.69531
0.67969
0.67969
0.67969
0.67969
0.68945
0.69922
0.70508
0.70508
0.70898
0.70898
0.71484
0.71484
0.7207
0.7207
0.72461
0.74414
0.82031
0.92383
0.93555
0.66992
0.47461
0.44922
0.57422
0.66992
0.7793
0.92969
1.0801
1.125
1.0352
0.87891
0.75391
0.69922
0.68555
0.67578
0.66992
0.66992
0.66016
0.66016
0.6543
0.6543
0.6543
0.65039
0.64063
0.64063
0.63477
0.63477
0.63477
0.62891
0.63477
0.63477
0.64453
0.6543
0.66992
0.67969
0.69531
0.70508
0.71484
0.7207
0.73047
0.74023
0.74414
0.74023
0.73438
0.72461
0.72461
0.7207
0.71484
0.71484
0.70898
0.70508
0.69922
0.69922
0.69531
0.68945
0.68945
0.68555
0.68555
0.68555
0.68555
0.68555
0.68945
0.69531
0.69922
0.69922
0.69922
0.69922
0.70508
0.70508
0.70508
0.70508
0.70898
0.71484
0.71484
0.70898
0.70898
0.70898
0.71484
0.71484
0.71484
0.71484
0.71484
0.71484
0.7207
0.73047
0.74414
0.76563
0.7793
0.78516
0.76563
0.73047
0.68945
0.66992
0.66406
0.66406
0.66016
0.66992
0.67969
0.68555
0.68945
0.69531
0.69531
0.69922
0.69922
0.70508
0.70508
0.70508
0.71484
0.76563
0.86523
0.91406
0.77539
0.53516
0.42969
0.5
0.625
0.73438
0.87891
1.0449
1.1445
1.1484
0.96484
0.80469
0.70898
0.67578
0.66406
0.65039
0.64453
0.64063
0.64063
0.64063
0.63477
0.62891
0.62891
0.625
0.61914
0.61914
0.61914
0.61523
0.60938
0.60547
0.60547
0.60547
0.60938
0.625
0.63477
0.65039
0.66406
0.67969
0.69922
0.71484
0.73047
0.74023
0.74023
0.74023
0.74023
0.73438
0.73047
0.72461
0.72461
0.72461
0.72461
0.7207
0.7207
0.71484
0.71484
0.71484
0.71484
0.71484
0.71484
0.71484
0.71484
0.71484
0.71484
0.71484
0.71484
0.71484
0.7207
0.72461
0.72461
0.72461
0.72461
0.72461
0.72461
0.73047
0.72461
0.72461
0.72461
0.72461
0.72461
0.72461
0.73047
0.73438
0.73438
0.73438
0.73438
0.73438
0.75391
0.7793
0.79883
0.80469
0.7793
0.74023
0.70508
0.68555
0.67969
0.68555
0.68555
0.68555
0.69531
0.69922
0.70508
0.70508
0.70898
0.71484
0.71484
0.71484
0.71484
0.7207
0.73047
0.77539
0.875
0.92383
0.7793
0.55078
0.46094
0.5293
0.63477
0.72461
0.84961
1.0098
1.1191
1.1289
0.96484
0.81055
0.71484
0.67969
0.67578
0.66992
0.66406
0.66016
0.6543
0.6543
0.6543
0.65039
0.65039
0.65039
0.64453
0.64063
0.64063
0.63477
0.63477
0.63477
0.63477
0.65039
0.66016
0.67578
0.68555
0.69922
0.70898
0.72461
0.73438
0.74414
0.75391
0.75977
0.75977
0.75391
0.75
0.75
0.74414
0.74023
0.73438
0.73047
0.72461
0.72461
0.7207
0.7207
0.71484
0.70898
0.70508
0.69922
0.69922
0.69531
0.69531
0.69531
0.69531
0.69922
0.69922
0.69922
0.70508
0.70508
0.70508
0.70898
0.70898
0.70898
0.71484
0.71484
0.71484
0.71484
0.71484
0.71484
0.71484
0.71484
0.71484
0.71484
0.71484
0.71484
0.71484
0.7207
0.73047
0.75391
0.76953
0.7793
0.77539
0.74023
0.69922
0.66992
0.66016
0.66016
0.66406
0.66016
0.66992
0.67969
0.68555
0.68555
0.69531
0.69531
0.69531
0.69922
0.69922
0.70508
0.70898
0.74414
0.83008
0.91406
0.84961
0.625
0.44922
0.43945
0.57422
0.67969
0.81055
0.97461
1.1152
1.1445
1.0137
0.84961
0.73047
0.67969
0.66992
0.6543
0.65039
0.65039
0.64453
0.64063
0.64063
0.64063
0.63477
0.62891
0.62891
0.625
0.61914
0.61523
0.61523
0.60938
0.60938
0.61523
0.625
0.63477
0.64453
0.66016
0.67578
0.68555
0.69531
0.70898
0.72461
0.73438
0.74023
0.74414
0.74023
0.73438
0.72461
0.72461
0.7207
0.71484
0.71484
0.70898
0.70898
0.70508
0.70508
0.70508
0.70508
0.70508
0.69922
0.70508
0.70508
0.70508
0.70508
0.70508
0.70898
0.70898
0.71484
0.71484
0.71484
0.71484
0.7207
0.7207
0.7207
0.7207
0.7207
0.7207
0.7207
0.7207
0.7207
0.7207
0.7207
0.7207
0.7207
0.72461
0.73438
0.75391
0.76953
0.78516
0.78906
0.76563
0.73438
0.69922
0.67578
0.67578
0.67578
0.67578
0.67969
0.68555
0.69531
0.69922
0.70508
0.70508
0.70898
0.71484
0.71484
0.7207
0.7207
0.73047
0.7793
0.875
0.91016
0.75977
0.52539
0.44531
0.53516
0.65039
0.75
0.87891
1.0352
1.1445
1.1543
0.98047
0.82031
0.71484
0.67969
0.66992
0.66016
0.6543
0.6543
0.64453
0.64063
0.64063
0.64063
0.64063
0.63477
0.62891
0.625
0.61914
0.61523
0.60938
0.60938
0.60938
0.61523
0.62891
0.64453
0.66016
0.67578
0.69531
0.70898
0.7207
0.73438
0.74414
0.75391
0.75977
0.75977
0.75
0.74414
0.74414
0.74414
0.74023
0.74023
0.74023
0.74023
0.73438
0.73047
0.72461
0.7207
0.71484
0.71484
0.71484
0.71484
0.71484
0.71484
0.71484
0.71484
0.7207
0.7207
0.7207
0.72461
0.72461
0.72461
0.72461
0.73047
0.73438
0.73438
0.73438
0.73438
0.73047
0.73047
0.72461
0.72461
0.72461
0.72461
0.73047
0.74023
0.75977
0.77539
0.78906
0.79492
0.7793
0.74023
0.69922
0.67969
0.67578
0.67578
0.67578
0.67969
0.68555
0.69531
0.69531
0.69922
0.70508
0.70508
0.70898
0.70898
0.70898
0.71484
0.7207
0.76953
0.875
0.92969
0.79883
0.56445
0.44922
0.49414
0.60547
0.71484
0.85547
1.0293
1.1289
1.0898
0.93945
0.78906
0.70508
0.67969
0.66406
0.66016
0.6543
0.65039
0.65039
0.64453
0.64453
0.64063
0.63477
0.63477
0.62891
0.62891
0.625
0.61914
0.61523
0.61523
0.61523
0.61523
0.62891
0.64063
0.65039
0.66016
0.67578
0.68945
0.70508
0.7207
0.73438
0.74414
0.75
0.75
0.74414
0.74023
0.73438
0.72461
0.7207
0.7207
0.7207
0.71484
0.71484
0.71484
0.71484
0.71484
0.70898
0.70508
0.70898
0.70898
0.70898
0.70898
0.70898
0.70898
0.71484
0.71484
0.71484
0.7207
0.7207
0.7207
0.7207
0.7207
0.7207
0.7207
0.7207
0.7207
0.72461
0.7207
0.7207
0.7207
0.7207
0.7207
0.72461
0.74023
0.76563
0.7793
0.78906
0.7793
0.75
0.71484
0.67969
0.66992
0.66992
0.66992
0.66992
0.67969
0.68945
0.69531
0.69922
0.69922
0.70508
0.70508
0.71484
0.71484
0.71484
0.71484
0.74414
0.82422
0.91016
0.84961
0.625
0.44922
0.43945
0.5957
0.70508
0.83008
0.98438
1.1289
1.1602
1.0547
0.88477
0.75
0.68945
0.66992
0.6543
0.65039
0.64063
0.64063
0.64063
0.63477
0.62891
0.62891
0.625
0.61914
0.61914
0.61523
0.60547
0.60547
0.5957
0.5957
0.5957
0.60547
0.61914
0.63477
0.65039
0.66406
0.67969
0.69922
0.71484
0.73047
0.74414
0.75
0.74414
0.74414
0.74023
0.73438
0.73438
0.73438
0.73047
0.72461
0.72461
0.7207
0.71484
0.71484
0.71484
0.71484
0.71484
0.71484
0.70898
0.70898
0.71484
0.71484
0.71484
0.71484
0.7207
0.72461
0.72461
0.72461
0.72461
0.72461
0.72461
0.72461
0.72461
0.73047
0.73047
0.73438
0.73438
0.73438
0.73438
0.73047
0.73047
0.73047
0.74023
0.75977
0.7793
0.79883
0.80469
0.7793
0.74414
0.70898
0.67969
0.67969
0.67969
0.67969
0.68555
0.69531
0.69922
0.70508
0.70508
0.70898
0.71484
0.71484
0.7207
0.7207
0.7207
0.73047
0.77539
0.875
0.92969
0.80469
0.57031
0.45508
0.50977
0.60938
0.70508
0.83398
1
1.1152
1.1191
0.95508
0.79883
0.70898
0.67969
0.67578
0.66992
0.66016
0.6543
0.6543
0.6543
0.65039
0.65039
0.64453
0.64063
0.64063
0.63477
0.62891
0.62891
0.625
0.61914
0.625
0.63477
0.64453
0.6543
0.66992
0.67969
0.69531
0.70508
0.71484
0.72461
0.73438
0.74414
0.75
0.74414
0.74023
0.74023
0.73438
0.73047
0.72461
0.7207
0.7207
0.71484
0.71484
0.70898
0.70508
0.70508
0.70508
0.69922
0.69922
0.69922
0.69922
0.69922
0.70508
0.70508
0.70508
0.70508
0.70898
0.70898
0.70898
0.70898
0.71484
0.70898
0.70898
0.70898
0.70898
0.70898
0.71484
0.71484
0.71484
0.71484
0.71484
0.7207
0.7207
0.7207
0.7207
0.73438
0.75391
0.76953
0.7793
0.78516
0.75391
0.71484
0.67969
0.66992
0.66406
0.66406
0.66406
0.66992
0.67969
0.68555
0.69531
0.69922
0.70508
0.70508
0.70898
0.70898
0.70898
0.71484
0.73438
0.79883
0.90039
0.91406
0.66406
0.46094
0.42969
0.55469
0.66992
0.78906
0.94922
1.0996
1.1602
1.0645
0.90039
0.75977
0.69531
0.66992
0.66016
0.65039
0.65039
0.64453
0.64063
0.64063
0.63477
0.62891
0.62891
0.62891
0.625
0.61914
0.60938
0.60547
0.59961
0.59961
0.59961
0.60547
0.61523
0.625
0.64063
0.6543
0.67578
0.69531
0.70898
0.72461
0.74023
0.74414
0.75
0.75
0.75
0.75
0.74414
0.74023
0.73438
0.73438
0.73438
0.73438
0.73438
0.73047
0.72461
0.72461
0.7207
0.7207
0.71484
0.71484
0.7207
0.7207
0.7207
0.7207
0.72461
0.72461
0.72461
0.72461
0.72461
0.73047
0.73438
0.73438
0.73438
0.73438
0.73047
0.73047
0.73047
0.73047
0.73047
0.73438
0.73438
0.73438
0.73438
0.73438
0.74023
0.75391
0.77539
0.78906
0.79883
0.78906
0.75391
0.71484
0.68555
0.67578
0.67578
0.67969
0.67969
0.68555
0.69531
0.69531
0.69922
0.69922
0.70508
0.70508
0.70508
0.70898
0.71484
0.71484
0.75
0.83398
0.91992
0.84961
0.625
0.46484
0.45508
0.58984
0.67969
0.79492
0.94922
1.084
1.1191
1
0.83984
0.72461
0.67578
0.66992
0.66016
0.65039
0.65039
0.64453
0.64063
0.63477
0.63477
0.62891
0.62891
0.625
0.61914
0.61914
0.61523
0.60938
0.60938
0.60547
0.60938
0.61914
0.63477
0.65039
0.66406
0.67578
0.68945
0.70508
0.71484
0.72461
0.74023
0.74414
0.74023
0.73438
0.73047
0.72461
0.7207
0.7207
0.71484
0.71484
0.70898
0.70508
0.70508
0.69922
0.69531
0.68945
0.68555
0.68945
0.68945
0.68945
0.68945
0.69531
0.69531
0.69531
0.69922
0.69922
0.69922
0.69922
0.69922
0.69922
0.70508
0.70508
0.70508
0.70508
0.70508
0.70508
0.70508
0.70508
0.70898
0.70898
0.70898
0.70898
0.70898
0.71484
0.73047
0.75
0.76563
0.77539
0.7793
0.73047
0.69531
0.66406
0.6543
0.66016
0.66016
0.66016
0.66992
0.67969
0.67969
0.68555
0.68555
0.69531
0.69531
0.69922
0.70508
0.70508
0.70508
0.74414
0.83398
0.9043
0.79883
0.56445
0.43945
0.49414
0.61914
0.7207
0.83984
0.99414
1.1191
1.1387
1.0039
0.83398
0.7207
0.66992
0.6543
0.64453
0.64063
0.63477
0.62891
0.62891
0.625
0.61914
0.61914
0.61914
0.61523
0.60938
0.60547
0.60547
0.59961
0.5957
0.5957
0.59961
0.60938
0.61914
0.63477
0.65039
0.66406
0.67969
0.69531
0.70898
0.73047
0.74414
0.75
0.75
0.74414
0.74023
0.74023
0.73438
0.73047
0.72461
0.7207
0.7207
0.7207
0.7207
0.71484
0.70898
0.70898
0.70898
0.70898
0.70898
0.71484
0.71484
0.71484
0.7207
0.7207
0.7207
0.7207
0.7207
0.72461
0.72461
0.7207
0.71484
0.71484
0.71484
0.7207
0.7207
0.72461
0.7207
0.7207
0.72461
0.72461
0.72461
0.73047
0.73047
0.74023
0.75977
0.77539
0.78516
0.78906
0.75977
0.7207
0.68945
0.66992
0.66406
0.66406
0.66992
0.67578
0.67969
0.68555
0.68945
0.69531
0.69531
0.69922
0.69922
0.69922
0.70508
0.70508
0.73047
0.79492
0.88867
0.90039
0.65039
0.45508
0.42578
0.56445
0.68555
0.80469
0.95898
1.1094
1.1641
1.0801
0.91016
0.75977
0.68555
0.66016
0.65039
0.64453
0.64063
0.63477
0.63477
0.62891
0.62891
0.625
0.61914
0.61523
0.61523
0.60938
0.60547
0.5957
0.5957
0.58984
0.58984
0.5957
0.60938
0.61914
0.63477
0.65039
0.66992
0.68555
0.69922
0.7207
0.73438
0.74023
0.74414
0.75
0.74023
0.73438
0.73438
0.73438
0.73047
0.72461
0.72461
0.7207
0.7207
0.7207
0.7207
0.7207
0.7207
0.7207
0.71484
0.71484
0.71484
0.7207
0.7207
0.7207
0.7207
0.7207
0.7207
0.72461
0.72461
0.73047
0.73047
0.72461
0.72461
0.7207
0.7207
0.7207
0.7207
0.72461
0.72461
0.72461
0.72461
0.72461
0.72461
0.72461
0.72461
0.74023
0.75977
0.77539
0.78516
0.7793
0.75
0.70898
0.67969
0.66406
0.66406
0.66992
0.66992
0.67578
0.68555
0.68555
0.68945
0.69531
0.69531
0.69531
0.69922
0.69922
0.69922
0.70508
0.73047
0.81055
0.9043
0.84961
0.62891
0.44922
0.43555
0.58008
0.67969
0.79492
0.94922
1.0996
1.1348
1.0293
0.86523
0.73047
0.67578
0.66016
0.6543
0.65039
0.64063
0.64063
0.63477
0.63477
0.62891
0.62891
0.61914
0.61523
0.61523
0.61523
0.60938
0.60938
0.60547
0.60547
0.60547
0.61523
0.625
0.64063
0.6543
0.67578
0.68945
0.70508
0.7207
0.73438
0.74414
0.75
0.75391
0.75
0.75
0.74414
0.74414
0.74023
0.74023
0.74023
0.73438
0.73047
0.73047
0.72461
0.72461
0.72461
0.72461
0.72461
0.72461
0.72461
0.72461
0.72461
0.72461
0.73047
0.73047
0.73438
0.73047
0.72461
0.72461
0.72461
0.72461
0.72461
0.72461
0.72461
0.73047
0.73438
0.73438
0.73047
0.72461
0.7207
0.7207
0.7207
0.7207
0.72461
0.73438
0.75391
0.77539
0.78906
0.79492
0.77539
0.73438
0.69531
0.67578
0.66992
0.66992
0.66992
0.66992
0.67969
0.67969
0.68555
0.68945
0.69531
0.69531
0.69531
0.69531
0.69922
0.69922
0.71484
0.76953
0.875
0.91406
0.75977
0.5293
0.43555
0.50586
0.60547
0.70898
0.85547
1.0254
1.1152
1.0586
0.91016
0.75977
0.67969
0.66016
0.65039
0.64063
0.64063
0.63477
0.63477
0.62891
0.62891
0.625
0.625
0.61914
0.61523
0.60938
0.60547
0.60547
0.59961
0.59961
0.59961
0.60938
0.61523
0.62891
0.64063
0.65039
0.66992
0.67969
0.69531
0.70508
0.7207
0.72461
0.73438
0.73438
0.73438
0.72461
0.72461
0.7207
0.71484
0.71484
0.70898
0.70898
0.70508
0.70508
0.70508
0.70508
0.70508
0.70508
0.70508
0.70508
0.70508
0.70508
0.70508
0.70508
0.70508
0.70898
0.71484
0.71484
0.71484
0.71484
0.71484
0.71484
0.71484
0.7207
0.7207
0.7207
0.7207
0.7207
0.7207
0.7207
0.7207
0.7207
0.7207
0.72461
0.72461
0.74023
0.75391
0.76953
0.7793
0.78516
0.75977
0.7207
0.68945
0.67578
0.66992
0.67578
0.67578
0.67969
0.68555
0.68945
0.69531
0.69922
0.70508
0.71484
0.71484
0.7207
0.71484
0.7207
0.74023
0.81055
0.9043
0.91992
0.66992
0.4707
0.43555
0.56445
0.67969
0.79883
0.95508
1.1094
1.1641
1.0703
0.90039
0.75391
0.68555
0.66992
0.6543
0.65039
0.64453
0.64063
0.64063
0.64063
0.63477
0.63477
0.62891
0.61914
0.61914
0.61523
0.60938
0.60547
0.5957
0.5957
0.5957
0.59961
0.60938
0.625
0.64453
0.66016
0.67578
0.69531
0.70898
0.72461
0.74023
0.74414
0.74414
0.74023
0.74023
0.73438
0.73047
0.73047
0.72461
0.72461
0.7207
0.7207
0.7207
0.7207
0.71484
0.7207
0.7207
0.71484
0.71484
0.71484
0.71484
0.7207
0.7207
0.7207
0.72461
0.72461
0.72461
0.72461
0.72461
0.72461
0.72461
0.72461
0.72461
0.72461
0.73047
0.73047
0.73438
0.73047
0.72461
0.72461
0.72461
0.72461
0.72461
0.73438
0.74414
0.76563
0.7793
0.78906
0.7793
0.74414
0.70898
0.67969
0.66992
0.66992
0.67578
0.67578
0.67969
0.68555
0.69531
0.69922
0.69922
0.70508
0.70508
0.70898
0.70508
0.70508
0.70898
0.74023
0.83008
0.91016
0.82031
0.58984
0.44922
0.49023
0.60547
0.69922
0.81445
0.97461
1.1035
1.1348
1.0039
0.83984
0.7207
0.66992
0.6543
0.64453
0.64063
0.64063
0.63477
0.63477
0.62891
0.62891
0.61914
0.61914
0.61523
0.61523
0.60938
0.60547
0.59961
0.5957
0.5957
0.60547
0.61523
0.62891
0.64063
0.6543
0.66992
0.68555
0.69922
0.70898
0.7207
0.72461
0.73047
0.73047
0.72461
0.7207
0.71484
0.71484
0.70898
0.70508
0.70508
0.69922
0.69531
0.68945
0.68555
0.68555
0.67969
0.67969
0.67969
0.67969
0.67969
0.68555
0.68555
0.68555
0.68945
0.69531
0.69531
0.69531
0.69531
0.69531
0.69922
0.69922
0.69922
0.69922
0.69922
0.69922
0.69922
0.69922
0.69922
0.69922
0.69922
0.69922
0.69922
0.69922
0.70508
0.7207
0.74414
0.75977
0.76953
0.75977
0.72461
0.68555
0.66016
0.65039
0.65039
0.65039
0.6543
0.66406
0.66992
0.67578
0.67969
0.67969
0.68555
0.68945
0.69531
0.69531
0.69531
0.70508
0.74414
0.83984
0.91016
0.80469
0.57422
0.43555
0.47461
0.58984
0.69922
0.83984
1.0098
1.1348
1.1445
0.98047
0.81445
0.70898
0.66992
0.6543
0.65039
0.64063
0.64063
0.63477
0.62891
0.62891
0.625
0.61914
0.61914
0.61523
0.60938
0.60938
0.60547
0.60547
0.60547
0.60547
0.60547
0.61523
0.625
0.64063
0.6543
0.66992
0.68555
0.69922
0.71484
0.73047
0.74023
0.74414
0.74414
0.74414
0.74023
0.73438
0.72461
0.72461
0.7207
0.7207
0.7207
0.7207
0.71484
0.71484
0.7207
0.71484
0.71484
0.71484
0.71484
0.71484
0.71484
0.71484
0.7207
0.7207
0.7207
0.7207
0.7207
0.72461
0.72461
0.72461
0.72461
0.72461
0.72461
0.72461
0.72461
0.72461
0.73047
0.73047
0.72461
0.72461
0.72461
0.72461
0.73047
0.74023
0.75977
0.77539
0.78516
0.78906
0.76563
0.72461
0.68945
0.67578
0.67578
0.66992
0.66992
0.67578
0.68555
0.69531
0.69922
0.70508
0.70898
0.71484
0.71484
0.71484
0.71484
0.71484
0.73438
0.79492
0.88867
0.91016
0.68945
0.48047
0.43945
0.55469
0.67578
0.78906
0.93945
1.0996
1.1738
1.1094
0.93555
0.7793
0.69922
0.66992
0.66016
0.66016
0.6543
0.64453
0.64063
0.63477
0.63477
0.63477
0.62891
0.62891
0.61914
0.61523
0.60938
0.60547
0.59961
0.5957
0.5957
0.59961
0.60938
0.625
0.63477
0.6543
0.66992
0.68555
0.70508
0.7207
0.73438
0.74414
0.75
0.75
0.74414
0.74414
0.74023
0.73438
0.73438
0.73438
0.73047
0.73047
0.73047
0.72461
0.7207
0.71484
0.71484
0.71484
0.71484
0.7207
0.7207
0.7207
0.72461
0.72461
0.72461
0.72461
0.73047
0.73047
0.73047
0.73438
0.73438
0.73438
0.73438
0.73438
0.73438
0.73438
0.73438
0.74023
0.74023
0.74023
0.73438
0.73438
0.74023
0.75391
0.77539
0.78906
0.80469
0.81055
0.78516
0.74414
0.70898
0.69531
0.69531
0.69531
0.68555
0.68945
0.69922
0.70508
0.70898
0.71484
0.71484
0.7207
0.7207
0.7207
0.7207
0.7207
0.74023
0.79883
0.91016
0.93945
0.73438
0.51563
0.46094
0.55078
0.65039
0.75
0.90039
1.0586
1.1348
1.0645
0.91016
0.76563
0.68945
0.66992
0.66016
0.6543
0.65039
0.64453
0.64063
0.63477
0.62891
0.62891
0.61914
0.61914
0.61523
0.60938
0.60547
0.60547
0.60547
0.60547
0.60547
0.61523
0.62891
0.64453
0.6543
0.66992
0.67969
0.69531
0.70508
0.7207
0.72461
0.73438
0.74023
0.74023
0.73438
0.72461
0.72461
0.7207
0.7207
0.71484
0.71484
0.70898
0.70508
0.70508
0.70508
0.69922
0.69922
0.69922
0.69922
0.69922
0.69922
0.70508
0.70508
0.70508
0.70898
0.70898
0.70898
0.70898
0.71484
0.71484
0.71484
0.7207
0.7207
0.7207
0.7207
0.7207
0.7207
0.7207
0.7207
0.7207
0.7207
0.7207
0.7207
0.73438
0.75391
0.77539
0.78516
0.7793
0.75
0.70898
0.67969
0.66406
0.66406
0.66406
0.66406
0.66992
0.67578
0.68555
0.68945
0.69531
0.69922
0.70508
0.70508
0.70508
0.70508
0.70898
0.73438
0.81055
0.9043
0.85938
0.64063
0.45508
0.43555
0.57422
0.68555
0.81055
0.96875
1.1191
1.1543
1.0488
0.875
0.73438
0.67578
0.66016
0.65039
0.64063
0.64063
0.64063
0.63477
0.63477
0.62891
0.62891
0.625
0.61914
0.61523
0.60938
0.60938
0.60547
0.59961
0.59961
0.59961
0.60938
0.61914
0.63477
0.65039
0.66016
0.67578
0.69531
0.70898
0.72461
0.73438
0.74414
0.75
0.74414
0.74023
0.73438
0.73047
0.72461
0.72461
0.7207
0.7207
0.7207
0.71484
0.71484
0.70898
0.70508
0.70508
0.70508
0.70508
0.70898
0.70508
0.70508
0.70898
0.70898
0.71484
0.71484
0.71484
0.71484
0.71484
0.71484
0.71484
0.71484
0.7207
0.7207
0.7207
0.7207
0.72461
0.72461
0.72461
0.72461
0.72461
0.72461
0.73047
0.74414
0.76563
0.7793
0.78906
0.78516
0.75
0.70898
0.67969
0.66992
0.66992
0.66992
0.66992
0.67969
0.68555
0.69531
0.69922
0.70508
0.70508
0.70508
0.70898
0.71484
0.71484
0.7207
0.75391
0.83984
0.91016
0.82031
0.58984
0.44922
0.49414
0.625
0.73047
0.84961
1.0039
1.1445
1.1699
1.0488
0.875
0.74414
0.68945
0.66992
0.66016
0.6543
0.65039
0.64063
0.64063
0.64063
0.64063
0.63477
0.62891
0.62891
0.61914
0.61914
0.61523
0.61523
0.60938
0.60938
0.60938
0.61914
0.63477
0.65039
0.66406
0.67578
0.68945
0.70508
0.7207
0.73438
0.74414
0.75391
0.75977
0.75391
0.75
0.74414
0.74023
0.74023
0.73438
0.73438
0.72461
0.72461
0.7207
0.7207
0.7207
0.7207
0.71484
0.71484
0.71484
0.71484
0.71484
0.71484
0.71484
0.7207
0.7207
0.72461
0.72461
0.72461
0.72461
0.72461
0.73047
0.73438
0.73438
0.73047
0.73047
0.73047
0.73438
0.73438
0.73438
0.73438
0.73438
0.73438
0.73438
0.73438
0.74414
0.76953
0.78516
0.79492
0.79883
0.76953
0.72461
0.68945
0.67578
0.67578
0.67578
0.67578
0.67578
0.67969
0.68555
0.68945
0.69531
0.69922
0.70508
0.70508
0.70508
0.70508
0.70508
0.73047
0.79492
0.90039
0.91406
0.67578
0.48047
0.43945
0.53906
0.64063
0.75977
0.91992
1.0742
1.1191
1.0254
0.85547
0.72461
0.66992
0.6543
0.65039
0.64063
0.63477
0.62891
0.62891
0.625
0.61914
0.61914
0.61914
0.61523
0.60938
0.60938
0.60547
0.60547
0.60547
0.60547
0.60547
0.60938
0.61914
0.63477
0.64453
0.66016
0.67578
0.68555
0.69922
0.71484
0.72461
0.73438
0.73438
0.73438
0.72461
0.7207
0.71484
0.70898
0.70508
0.70508
0.69922
0.69922
0.69922
0.69922
0.69922
0.69922
0.69531
0.69531
0.69922
0.69922
0.69922
0.70508
0.70508
0.70898
0.70898
0.70898
0.71484
0.71484
0.71484
0.71484
0.71484
0.71484
0.71484
0.71484
0.7207
0.7207
0.7207
0.7207
0.7207
0.7207
0.7207
0.7207
0.72461
0.73047
0.74414
0.76563
0.7793
0.78906
0.77539
0.74023
0.69922
0.67578
0.66992
0.66992
0.66992
0.66992
0.67969
0.68555
0.68555
0.68945
0.69531
0.69922
0.69922
0.69922
0.70508
0.70508
0.70898
0.75
0.83984
0.9043
0.79492
0.55469
0.42578
0.48438
0.60938
0.7207
0.85547
1.0137
1.1387
1.1602
1.0098
0.83984
0.72461
0.66992
0.6543
0.64453
0.64063
0.64063
0.63477
0.63477
0.62891
0.62891
0.625
0.61914
0.61914
0.61523
0.60938
0.60547
0.60547
0.59961
0.59961
0.60547
0.60938
0.625
0.63477
0.65039
0.66992
0.67969
0.69531
0.70898
0.72461
0.73438
0.74414
0.74414
0.74414
0.74414
0.74023
0.73438
0.73047
0.72461
0.72461
0.72461
0.7207
0.7207
0.71484
0.71484
0.70898
0.70898
0.70508
0.70898
0.70898
0.70898
0.71484
0.71484
0.71484
0.7207
0.72461
0.72461
0.72461
0.72461
0.72461
0.73047
0.73047
0.73047
0.73047
0.73047
0.73438
0.73438
0.73438
0.73438
0.73438
0.73438
0.73438
0.73438
0.74023
0.75391
0.77539
0.78906
0.79883
0.78906
0.75977
0.7207
0.68945
0.67969
0.67969
0.67969
0.68555
0.69531
0.69922
0.70508
0.70898
0.70898
0.71484
0.7207
0.72461
0.72461
0.72461
0.72461
0.75391
0.83984
0.92383
0.84961
0.61914
0.46484
0.46094
0.60547
0.69922
0.81445
0.97461
1.1152
1.1445
1.0352
0.86914
0.74414
0.68945
0.67578
0.66992
0.66406
0.66406
0.66016
0.66016
0.66016
0.6543
0.65039
0.65039
0.64453
0.64063
0.63477
0.63477
0.63477
0.63477
0.63477
0.64063
0.65039
0.66016
0.67578
0.68555
0.69531
0.70508
0.71484
0.72461
0.73438
0.74023
0.74414
0.74414
0.74023
0.73047
0.72461
0.7207
0.7207
0.71484
0.71484
0.70898
0.70508
0.69922
0.69922
0.69922
0.69922
0.69922
0.69922
0.69922
0.69922
0.69922
0.69922
0.69922
0.70508
0.70898
0.70898
0.70898
0.71484
0.71484
0.71484
0.7207
0.7207
0.7207
0.7207
0.7207
0.7207
0.7207
0.7207
0.7207
0.7207
0.72461
0.7207
0.72461
0.72461
0.72461
0.74023
0.75391
0.77539
0.78516
0.78906
0.75977
0.71484
0.67969
0.66992
0.66992
0.66992
0.66992
0.67578
0.67969
0.68555
0.68555
0.69531
0.69922
0.69922
0.70508
0.70508
0.70898
0.71484
0.74023
0.81055
0.91016
0.91992
0.66016
0.46484
0.43555
0.56445
0.67578
0.79492
0.94922
1.0996
1.1484
1.0547
0.88477
0.74414
0.67969
0.66406
0.6543
0.65039
0.64453
0.64063
0.64063
0.63477
0.63477
0.62891
0.62891
0.625
0.61914
0.61914
0.61523
0.60938
0.60938
0.60938
0.60938
0.61914
0.62891
0.64453
0.6543
0.66992
0.67969
0.69922
0.71484
0.72461
0.73438
0.74023
0.74414
0.75
0.74414
0.74023
0.73438
0.73047
0.72461
0.72461
0.7207
0.7207
0.7207
0.71484
0.71484
0.70898
0.70898
0.71484
0.71484
0.71484
0.71484
0.71484
0.71484
0.7207
0.7207
0.7207
0.72461
0.72461
0.73047
0.73438
0.73438
0.75
0.77539
0.78906
0.79883
0.80469
0.77539
0.73047
0.69531
0.67578
0.66992
0.66992
0.67578
0.68555
0.69531
0.69922
0.69922
0.70508
0.70508
0.70898
0.71484
0.71484
0.7207
0.71484
0.73047
0.78516
0.87891
0.91016
0.73047
0.50586
0.44922
0.54492
0.66406
0.77539
0.91992
1.0801
1.1797
1.1289
0.96875
0.80469
0.70898
0.67578
0.66406
0.6543
0.6543
0.65039
0.64063
0.64063
0.64063
0.63477
0.63477
0.62891
0.62891
0.61914
0.61523
0.60938
0.60547
0.60547
0.60547
0.60938
0.61914
0.63477
0.6543
0.66992
0.67969
0.68945
0.70508
0.7207
0.73438
0.74414
0.75
0.74414
0.74023
0.73438
0.73047
0.73047
0.73047
0.72461
0.72461
0.7207
0.7207
0.7207
0.7207
0.71484
0.71484
0.71484
0.71484
0.71484
0.71484
0.71484
0.7207
0.7207
0.7207
0.7207
0.7207
0.7207
0.7207
0.7207
0.7207
0.7207
0.7207
0.72461
0.72461
0.72461
0.72461
0.72461
0.73047
0.73047
0.73047
0.73047
0.73047
0.73047
0.73438
0.73438
0.73438
0.73047
0.72461
0.72461
0.72461
0.74023
0.75977
0.7793
0.78906
0.78906
0.76563
0.7207
0.68945
0.66992
0.66992
0.66992
0.67578
0.67969
0.68555
0.69531
0.69531
0.69922
0.70508
0.70508
0.70898
0.71484
0.71484
0.71484
0.74414
0.83398
0.92383
0.85547
0.625
0.46094
0.44922
0.57422
0.67578
0.80469
0.96875
1.1035
1.1289
0.99023
0.83008
0.7207
0.67578
0.66016
0.6543
0.65039
0.64453
0.64063
0.64063
0.64063
0.63477
0.63477
0.62891
0.62891
0.625
0.61914
0.61914
0.61523
0.61523
0.61523
0.61523
0.625
0.63477
0.65039
0.66016
0.67578
0.68555
0.69922
0.70898
0.72461
0.73438
0.74023
0.74023
0.74023
0.73438
0.72461
0.72461
0.7207
0.71484
0.71484
0.70898
0.70508
0.70508
0.70508
0.70508
0.70508
0.69922
0.69922
0.69922
0.69922
0.69922
0.69922
0.70508
0.70508
0.70508
0.70508
0.70508
0.70898
0.70898
0.70898
0.71484
0.71484
0.71484
0.71484
0.71484
0.71484
0.7207
0.7207
0.7207
0.7207
0.7207
0.7207
0.7207
0.7207
0.7207
0.7207
0.73438
0.75391
0.76953
0.7793
0.78516
0.76563
0.73047
0.69531
0.66406
0.6543
0.6543
0.6543
0.66406
0.67578
0.67969
0.68555
0.68945
0.69531
0.69922
0.69922
0.70508
0.70508
0.70508
0.73438
0.81055
0.89453
0.83984
0.61914
0.44531
0.42969
0.58008
0.68945
0.81445
0.97461
1.1152
1.1543
1.0547
0.87891
0.74414
0.67969
0.66016
0.65039
0.64063
0.64063
0.63477
0.63477
0.62891
0.625
0.61914
0.61914
0.61523
0.60938
0.60547
0.60547
0.5957
0.5957
0.5957
0.5957
0.60547
0.61523
0.62891
0.64453
0.6543
0.66992
0.68555
0.69922
0.70898
0.7207
0.73047
0.73438
0.73438
0.72461
0.72461
0.7207
0.7207
0.7207
0.71484
0.70898
0.70508
0.70508
0.69922
0.69531
0.69531
0.69531
0.69531
0.69531
0.69531
0.69531
0.69922
0.69922
0.70508
0.69922
0.70508
0.70508
0.70508
0.70898
0.70898
0.70898
0.71484
0.71484
0.71484
0.7207
0.7207
0.71484
0.71484
0.7207
0.7207
0.7207
0.7207
0.7207
0.7207
0.7207
0.7207
0.7207
0.73047
0.75
0.76953
0.7793
0.78516
0.75977
0.72461
0.68945
0.66992
0.66016
0.66016
0.66992
0.67578
0.67969
0.68555
0.69531
0.69531
0.69922
0.69922
0.70508
0.70508
0.70898
0.70898
0.73047
0.78516
0.88477
0.91016
0.70898
0.49414
0.43945
0.53516
0.64063
0.74414
0.88477
1.0449
1.1289
1.0742
0.91992
0.77539
0.69531
0.67578
0.66016
0.6543
0.65039
0.64453
0.64063
0.64063
0.64063
0.63477
0.63477
0.63477
0.62891
0.62891
0.625
0.625
0.625
0.625
0.62891
0.63477
0.65039
0.66016
0.67578
0.68555
0.69531
0.70508
0.71484
0.7207
0.73047
0.73438
0.74023
0.73438
0.73438
0.72461
0.7207
0.7207
0.7207
0.71484
0.70898
0.70508
0.69922
0.69922
0.69531
0.69531
0.69531
0.68945
0.68945
0.68945
0.69531
0.69531
0.69922
0.69922
0.70508
0.70508
0.70508
0.70508
0.70508
0.70898
0.71484
0.71484
0.71484
0.71484
0.71484
0.71484
0.71484
0.7207
0.7207
0.7207
0.7207
0.7207
0.7207
0.7207
0.7207
0.73047
0.74414
0.76563
0.7793
0.78906
0.77539
0.74023
0.69922
0.67578
0.66016
0.66016
0.66406
0.66992
0.67578
0.67969
0.68555
0.69531
0.69922
0.69922
0.70508
0.70508
0.70898
0.70898
0.71484
0.74414
0.83398
0.91016
0.81445
0.58008
0.43555
0.48047
0.59961
0.70508
0.83984
1.0039
1.1289
1.1543
1.0137
0.84375
0.72461
0.67578
0.66016
0.65039
0.64063
0.64063
0.63477
0.63477
0.62891
0.62891
0.61914
0.61914
0.61914
0.61523
0.61523
0.60938
0.60547
0.59961
0.5957
0.60547
0.60938
0.61914
0.63477
0.65039
0.66406
0.67969
0.69531
0.70508
0.71484
0.72461
0.73438
0.73438
0.73438
0.73438
0.72461
0.7207
0.7207
0.71484
0.71484
0.70898
0.70898
0.70508
0.70508
0.70508
0.69922
0.69922
0.69922
0.69922
0.69922
0.69922
0.69922
0.69922
0.70508
0.70508
0.70508
0.70898
0.71484
0.71484
0.71484
0.71484
0.7207
0.7207
0.7207
0.7207
0.7207
0.7207
0.72461
0.72461
0.72461
0.72461
0.73047
0.72461
0.72461
0.73438
0.75
0.76953
0.78516
0.78906
0.76953
0.73438
0.69922
0.67578
0.66992
0.66992
0.67578
0.67578
0.68555
0.69531
0.69531
0.69922
0.70508
0.70898
0.70898
0.70898
0.71484
0.71484
0.7207
0.75977
0.85547
0.91406
0.78906
0.55469
0.44531
0.51563
0.63477
0.73047
0.85547
1.0137
1.1289
1.1484
1.0039
0.83398
0.72461
0.67578
0.66016
0.6543
0.65039
0.64453
0.64063
0.64063
0.63477
0.63477
0.62891
0.62891
0.61914
0.61914
0.61914
0.61523
0.61523
0.61523
0.61523
0.625
0.63477
0.65039
0.66406
0.67969
0.68945
0.70508
0.71484
0.72461
0.73438
0.74023
0.74414
0.74023
0.73438
0.73047
0.72461
0.7207
0.7207
0.71484
0.71484
0.71484
0.70508
0.70508
0.70508
0.70508
0.69922
0.69922
0.69922
0.69922
0.69922
0.69922
0.69922
0.69922
0.69922
0.70508
0.70508
0.70508
0.70898
0.70898
0.70898
0.70898
0.70898
0.70898
0.70898
0.70898
0.70898
0.71484
0.71484
0.71484
0.7207
0.7207
0.7207
0.73438
0.75391
0.77539
0.78516
0.78906
0.76563
0.7207
0.68555
0.66992
0.66406
0.66406
0.66406
0.66992
0.67969
0.68555
0.68555
0.69531
0.69922
0.69922
0.70508
0.70508
0.70508
0.70898
0.72461
0.7793
0.87891
0.91016
0.73047
0.50586
0.44531
0.53516
0.65039
0.75977
0.91016
1.0703
1.1543
1.0938
0.92969
0.77539
0.68945
0.66406
0.6543
0.65039
0.64453
0.64063
0.64063
0.63477
0.63477
0.63477
0.62891
0.62891
0.625
0.61914
0.61523
0.61523
0.60938
0.60938
0.61523
0.61914
0.62891
0.64063
0.6543
0.66406
0.67969
0.68945
0.70508
0.71484
0.72461
0.73438
0.74023
0.74023
0.73438
0.73047
0.72461
0.7207
0.7207
0.7207
0.71484
0.71484
0.70898
0.70898
0.70898
0.71484
0.71484
0.71484
0.70898
0.71484
0.71484
0.71484
0.71484
0.7207
0.72461
0.72461
0.72461
0.72461
0.72461
0.72461
0.72461
0.72461
0.72461
0.72461
0.72461
0.72461
0.72461
0.72461
0.72461
0.72461
0.72461
0.72461
0.72461
0.73438
0.74414
0.76563
0.7793
0.78906
0.79492
0.75977
0.7207
0.68945
0.67578
0.67578
0.67578
0.67578
0.68555
0.69531
0.69922
0.70508
0.70508
0.71484
0.71484
0.7207
0.7207
0.7207
0.7207
0.74023
0.81055
0.9043
0.85938
0.64453
0.46094
0.43555
0.58398
0.69922
0.82422
0.97461
1.1191
1.1738
1.084
0.91406
0.76563
0.68945
0.66992
0.6543
0.65039
0.64063
0.64063
0.63477
0.63477
0.62891
0.625
0.61914
0.61914
0.61523
0.61523
0.60938
0.60547
0.59961
0.59961
0.59961
0.60938
0.61914
0.63477
0.65039
0.66406
0.67578
0.68945
0.70508
0.7207
0.73438
0.74023
0.74414
0.74414
0.74023
0.73438
0.73047
0.72461
0.72461
0.7207
0.7207
0.71484
0.71484
0.71484
0.71484
0.71484
0.70898
0.70508
0.70508
0.70508
0.70898
0.71484
0.71484
0.71484
0.7207
0.7207
0.7207
0.72461
0.72461
0.72461
0.73047
0.73438
0.73438
0.73438
0.73047
0.72461
0.73047
0.73047
0.73438
0.73438
0.73438
0.73438
0.73438
0.73438
0.74023
0.75391
0.77539
0.78906
0.79883
0.79492
0.76563
0.73047
0.69531
0.68555
0.68555
0.68555
0.68945
0.69531
0.69922
0.70508
0.70898
0.71484
0.71484
0.7207
0.7207
0.7207
0.72461
0.72461
0.74414
0.81445
0.91406
0.92969
0.68555
0.49023
0.46094
0.57031
0.66406
0.7793
0.93945
1.084
1.1387
1.0488
0.88867
0.75391
0.69922
0.68555
0.67578
0.66992
0.66406
0.66016
0.66016
0.6543
0.6543
0.65039
0.65039
0.64453
0.64063
0.63477
0.63477
0.63477
0.63477
0.63477
0.63477
0.64453
0.6543
0.66992
0.67969
0.69531
0.69922
0.71484
0.72461
0.73438
0.74023
0.74414
0.75
0.74414
0.74023
0.74023
0.73438
0.73047
0.72461
0.7207
0.7207
0.71484
0.70898
0.70508
0.70508
0.70508
0.70508
0.70508
0.70508
0.69922
0.69922
0.69922
0.69922
0.70508
0.70508
0.70508
0.70898
0.71484
0.71484
0.71484
0.71484
0.7207
0.7207
0.7207
0.7207
0.7207
0.7207
0.7207
0.7207
0.7207
0.72461
0.72461
0.72461
0.72461
0.72461
0.73438
0.75391
0.77539
0.78516
0.78906
0.76953
0.73047
0.69531
0.67578
0.67578
0.67578
0.67578
0.67969
0.68945
0.69531
0.69922
0.69922
0.70508
0.70898
0.70898
0.71484
0.71484
0.7207
0.72461
0.77539
0.875
0.91016
0.75
0.51953
0.43945
0.52539
0.64453
0.75977
0.9043
1.0645
1.1641
1.1191
0.96484
0.80469
0.70898
0.67578
0.66016
0.6543
0.65039
0.64453
0.64063
0.63477
0.62891
0.62891
0.625
0.61914
0.61523
0.61523
0.60938
0.60547
0.60547
0.60547
0.60547
0.60938
0.61914
0.63477
0.65039
0.66406
0.67969
0.69531
0.69922
0.71484
0.72461
0.73438
0.74414
0.74414
0.74023
0.74023
0.73438
0.73047
0.72461
0.7207
0.71484
0.70898
0.70898
0.70898
0.70898
0.70898
0.70508
0.70508
0.70508
0.70508
0.70898
0.70898
0.70898
0.71484
0.71484
0.71484
0.7207
0.7207
0.7207
0.7207
0.72461
0.72461
0.72461
0.72461
0.72461
0.72461
0.72461
0.72461
0.72461
0.72461
0.72461
0.72461
0.72461
0.72461
0.72461
0.72461
0.73438
0.75391
0.77539
0.78516
0.78906
0.77539
0.74023
0.70508
0.67969
0.67578
0.67578
0.67578
0.67578
0.68555
0.69531
0.69922
0.70508
0.70898
0.71484
0.71484
0.71484
0.7207
0.7207
0.72461
0.76563
0.85547
0.90039
0.76953
0.53516
0.44531
0.52539
0.65039
0.75391
0.88477
1.0391
1.1543
1.1699
1.0098
0.83984
0.73047
0.67969
0.66992
0.6543
0.65039
0.65039
0.64453
0.64063
0.64063
0.63477
0.62891
0.62891
0.625
0.61914
0.61523
0.61523
0.61523
0.61523
0.61523
0.625
0.63477
0.65039
0.66406
0.67969
0.69531
0.70508
0.7207
0.73047
0.74023
0.75
0.75
0.75391
0.75
0.74023
0.73438
0.73438
0.73438
0.73047
0.72461
0.7207
0.71484
0.71484
0.71484
0.71484
0.71484
0.70898
0.70898
0.70898
0.70898
0.70898
0.70898
0.71484
0.71484
0.7207
0.7207
0.7207
0.72461
0.72461
0.73047
0.73047
0.72461
0.72461
0.72461
0.72461
0.73047
0.73438
0.73047
0.73047
0.73047
0.73438
0.73047
0.72461
0.73438
0.75
0.77539
0.78906
0.79883
0.78906
0.75391
0.70898
0.67969
0.67578
0.67578
0.67578
0.67578
0.67969
0.68945
0.69531
0.69922
0.70508
0.70508
0.70508
0.70898
0.71484
0.71484
0.7207
0.75
0.83398
0.91992
0.84375
0.61914
0.46484
0.45508
0.58984
0.68945
0.82422
0.99023
1.1191
1.1387
0.99023
0.82422
0.71484
0.67578
0.66406
0.66016
0.6543
0.65039
0.64453
0.64063
0.64063
0.63477
0.63477
0.62891
0.62891
0.625
0.61914
0.61523
0.61523
0.60938
0.61523
0.61914
0.62891
0.64063
0.6543
0.66992
0.67969
0.68945
0.69922
0.71484
0.72461
0.73438
0.74414
0.74414
0.74414
0.74023
0.73047
0.72461
0.7207
0.7207
0.71484
0.71484
0.70898
0.70898
0.71484
0.71484
0.70898
0.70898
0.70898
0.70898
0.70898
0.70898
0.71484
0.71484
0.7207
0.7207
0.7207
0.72461
0.72461
0.72461
0.72461
0.72461
0.72461
0.72461
0.72461
0.72461
0.72461
0.72461
0.72461
0.73047
0.73047
0.73438
0.72461
0.72461
0.72461
0.73438
0.74414
0.76563
0.78516
0.78906
0.7793
0.74414
0.70898
0.67969
0.66992
0.66992
0.66992
0.67578
0.67969
0.68555
0.69531
0.69922
0.70508
0.70898
0.71484
0.71484
0.71484
0.71484
0.7207
0.75
0.83008
0.9043
0.81445
0.58398
0.43555
0.48047
0.60547
0.7207
0.84961
1.0039
1.1445
1.1699
1.0449
0.86914
0.74023
0.68555
0.66406
0.65039
0.64063
0.64063
0.63477
0.62891
0.62891
0.625
0.61914
0.61914
0.61523
0.60938
0.60547
0.60547
0.59961
0.5957
0.5957
0.59961
0.60938
0.61914
0.63477
0.6543
0.66992
0.67969
0.69531
0.70898
0.72461
0.74023
0.74414
0.75
0.74414
0.74414
0.74023
0.73438
0.73438
0.73438
0.73047
0.72461
0.72461
0.7207
0.71484
0.71484
0.71484
0.70898
0.70898
0.71484
0.71484
0.71484
0.71484
0.71484
0.7207
0.7207
0.72461
0.72461
0.72461
0.72461
0.72461
0.72461
0.73047
0.73438
0.73438
0.73438
0.73438
0.73438
0.73438
0.73438
0.73438
0.73438
0.73438
0.73438
0.73438
0.73438
0.73438
0.75
0.77539
0.78906
0.80469
0.79492
0.76563
0.72461
0.69531
0.67969
0.67969
0.68555
0.68555
0.69531
0.69922
0.69922
0.70508
0.70508
0.70898
0.70898
0.71484
0.71484
0.71484
0.7207
0.74414
0.82031
0.91992
0.86914
0.65039
0.46484
0.43945
0.56445
0.66406
0.78516
0.94922
1.0898
1.1191
1.0137
0.85938
0.73438
0.67969
0.66406
0.6543
0.65039
0.65039
0.64453
0.64063
0.64063
0.63477
0.62891
0.62891
0.61914
0.61914
0.61914
0.61523
0.61523
0.60938
0.60938
0.61914
0.62891
0.64063
0.6543
0.66992
0.67969
0.69531
0.70508
0.71484
0.72461
0.73438
0.74023
0.74414
0.74023
0.73438
0.72461
0.7207
0.7207
0.71484
0.70508
0.69922
0.69922
0.69531
0.69531
0.69531
0.69922
0.69922
0.69922
0.69922
0.69922
0.69922
0.69922
0.69922
0.70508
0.70508
0.70508
0.70508
0.70898
0.70898
0.70898
0.70898
0.70898
0.70898
0.70898
0.70898
0.70898
0.70898
0.70898
0.70898
0.70898
0.70898
0.70508
0.70508
0.70508
0.70508
0.70508
0.71484
0.73047
0.75
0.76563
0.76953
0.75391
0.7207
0.67969
0.6543
0.65039
0.6543
0.6543
0.6543
0.66992
0.67578
0.67969
0.67969
0.68555
0.68945
0.69531
0.69531
0.69922
0.69922
0.70898
0.75391
0.84961
0.88867
0.74023
0.50586
0.41602
0.5
0.625
0.74023
0.87891
1.0449
1.1484
1.1543
0.96875
0.80469
0.69922
0.66016
0.65039
0.64063
0.63477
0.62891
0.61914
0.61914
0.61523
0.61523
0.61523
0.60938
0.60547
0.60547
0.5957
0.5957
0.58984
0.58984
0.5957
0.59961
0.60938
0.625
0.63477
0.65039
0.66406
0.67969
0.68945
0.70508
0.71484
0.72461
0.73438
0.73438
0.73047
0.72461
0.7207
0.71484
0.71484
0.71484
0.70898
0.70508
0.69922
0.69922
0.69922
0.69922
0.69922
0.69531
0.69531
0.69531
0.69922
0.69922
0.69922
0.69922
0.69922
0.70508
0.70898
0.71484
0.71484
0.71484
0.71484
0.71484
0.7207
0.7207
0.7207
0.7207
0.7207
0.7207
0.72461
0.72461
0.72461
0.7207
0.7207
0.72461
0.73047
0.74414
0.76563
0.7793
0.78516
0.78906
0.74414
0.70898
0.68555
0.67578
0.67578
0.67578
0.67578
0.68555
0.68945
0.69531
0.69922
0.70508
0.70508
0.70508
0.70898
0.71484
0.71484
0.7207
0.74023
0.81445
0.91016
0.85938
0.63477
0.46094
0.44531
0.58984
0.68945
0.80469
0.95508
1.1035
1.1445
1.0488
0.88477
0.75
0.68555
0.66992
0.6543
0.65039
0.64453
0.64063
0.63477
0.63477
0.62891
0.62891
0.625
0.61914
0.61914
0.61914
0.61523
0.61523
0.61523
0.61914
0.62891
0.64063
0.6543
0.66992
0.67969
0.69531
0.70508
0.7207
0.72461
0.73438
0.74023
0.74414
0.74414
0.74023
0.73438
0.73047
0.72461
0.7207
0.71484
0.71484
0.71484
0.70508
0.70508
0.70508
0.69922
0.69922
0.69922
0.69922
0.69922
0.69922
0.69922
0.69922
0.69922
0.70508
0.70508
0.70898
0.71484
0.71484
0.71484
0.71484
0.71484
0.71484
0.71484
0.71484
0.71484
0.71484
0.7207
0.7207
0.7207
0.7207
0.7207
0.7207
0.73438
0.75391
0.77539
0.78906
0.79492
0.7793
0.74023
0.69922
0.67578
0.66992
0.66992
0.66992
0.67578
0.68555
0.68945
0.69531
0.69922
0.69922
0.69922
0.70508
0.70508
0.70508
0.70898
0.71484
0.74414
0.83398
0.91016
0.81445
0.58398
0.44531
0.43945
0.59961
0.70508
0.83984
1.0039
1.1348
1.1602
1.0137
0.83984
0.72461
0.67578
0.66016
0.6543
0.64453
0.64063
0.64063
0.63477
0.62891
0.625
0.61914
0.61914
0.61914
0.61523
0.61523
0.60938
0.60547
0.60547
0.60547
0.60938
0.61914
0.62891
0.64453
0.6543
0.66992
0.67969
0.68945
0.69922
0.71484
0.72461
0.73438
0.74023
0.73438
0.73047
0.72461
0.7207
0.71484
0.71484
0.71484
0.71484
0.70898
0.70898
0.70898
0.70508
0.70508
0.70508
0.70508
0.70898
0.70898
0.70898
0.71484
0.71484
0.7207
0.7207
0.7207
0.7207
0.7207
0.7207
0.72461
0.72461
0.72461
0.72461
0.72461
0.72461
0.72461
0.72461
0.72461
0.72461
0.72461
0.72461
0.73047
0.74023
0.75391
0.76953
0.78516
0.78906
0.77539
0.74023
0.69922
0.67969
0.67578
0.67578
0.67578
0.67578
0.68555
0.68945
0.69531
0.69922
0.69922
0.69922
0.70508
0.70508
0.70508
0.70898
0.7207
0.75391
0.84375
0.9043
0.78516
0.54492
0.43555
0.5
0.62891
0.74414
0.87891
1.0352
1.1543
1.1738
1.0195
0.85547
0.73438
0.67969
0.66992
0.6543
0.65039
0.64453
0.64063
0.63477
0.62891
0.62891
0.625
0.61914
0.61914
0.61523
0.60938
0.60547
0.60547
0.60547
0.60547
0.60547
0.61523
0.62891
0.64063
0.6543
0.66992
0.68555
0.69922
0.71484
0.72461
0.74023
0.74414
0.74414
0.74414
0.73438
0.73438
0.73047
0.72461
0.72461
0.72461
0.7207
0.7207
0.71484
0.70898
0.70898
0.70508
0.70898
0.71484
0.70898
0.70898
0.70508
0.70508
0.70898
0.71484
0.71484
0.71484
0.71484
0.71484
0.7207
0.7207
0.7207
0.7207
0.7207
0.7207
0.7207
0.72461
0.72461
0.72461
0.72461
0.72461
0.72461
0.72461
0.72461
0.72461
0.73438
0.75391
0.77539
0.78516
0.78906
0.76563
0.72461
0.68945
0.67578
0.66992
0.66992
0.67578
0.67578
0.67969
0.68555
0.68555
0.68945
0.69531
0.69922
0.69922
0.70508
0.70508
0.70508
0.71484
0.76953
0.875
0.91016
0.75
0.51953
0.42969
0.49414
0.59961
0.70508
0.85547
1.0137
1.1035
1.0547
0.91016
0.75977
0.68555
0.66016
0.65039
0.64063
0.63477
0.63477
0.62891
0.62891
0.61914
0.61914
0.61523
0.61523
0.61523
0.60938
0.60547
0.60547
0.60547
0.60547
0.60547
0.61523
0.62891
0.64453
0.6543
0.66992
0.67969
0.69531
0.69922
0.71484
0.72461
0.73438
0.74023
0.73438
0.73438
0.73047
0.72461
0.7207
0.71484
0.71484
0.71484
0.70508
0.70508
0.70508
0.69922
0.69922
0.69922
0.69922
0.69922
0.69922
0.69922
0.70508
0.70508
0.70508
0.70898
0.71484
0.71484
0.71484
0.71484
0.71484
0.71484
0.7207
0.7207
0.7207
0.7207
0.7207
0.7207
0.7207
0.7207
0.72461
0.72461
0.72461
0.72461
0.72461
0.72461
0.73047
0.74414
0.76563
0.7793
0.78516
0.77539
0.74414
0.70508
0.67578
0.66992
0.66992
0.66992
0.66992
0.67969
0.68555
0.69531
0.69922
0.69922
0.69922
0.70508
0.70508
0.70508
0.70508
0.71484
0.74414
0.82422
0.9043
0.82031
0.58984
0.43555
0.4707
0.59961
0.70898
0.83398
0.99023
1.1289
1.1641
1.0391
0.86914
0.73438
0.67969
0.66992
0.6543
0.65039
0.64453
0.64063
0.64063
0.63477
0.63477
0.62891
0.61914
0.61914
0.61523
0.60938
0.60547
0.59961
0.59961
0.59961
0.60547
0.61523
0.625
0.64063
0.65039
0.66406
0.67969
0.69531
0.70898
0.72461
0.73438
0.74023
0.74414
0.74414
0.74023
0.74023
0.73438
0.73438
0.73047
0.72461
0.7207
0.7207
0.7207
0.7207
0.71484
0.71484
0.71484
0.7207
0.7207
0.7207
0.7207
0.7207
0.72461
0.72461
0.72461
0.73047
0.73047
0.73438
0.73438
0.73438
0.74023
0.74023
0.73438
0.73438
0.74023
0.74023
0.74023
0.74023
0.74023
0.74023
0.74414
0.74023
0.74023
0.74023
0.75
0.76563
0.78516
0.79492
0.80469
0.78516
0.75
0.71484
0.69531
0.68555
0.68945
0.68555
0.68555
0.69922
0.70508
0.70898
0.71484
0.71484
0.7207
0.7207
0.72461
0.72461
0.72461
0.73438
0.77539
0.875
0.92969
0.80469
0.57422
0.46094
0.51563
0.625
0.72461
0.85547
1.0137
1.1289
1.1387
0.98438
0.82422
0.72461
0.68555
0.67578
0.66406
0.6543
0.6543
0.65039
0.65039
0.64453
0.64063
0.63477
0.62891
0.62891
0.625
0.61914
0.61914
0.61523
0.61523
0.61914
0.625
0.63477
0.65039
0.66016
0.66992
0.67969
0.68945
0.69922
0.70898
0.7207
0.72461
0.73047
0.73047
0.72461
0.7207
0.71484
0.71484
0.70898
0.70508
0.70508
0.69922
0.69531
0.69531
0.69531
0.69531
0.69531
0.69531
0.69922
0.69922
0.69922
0.69922
0.69922
0.70508
0.70508
0.70508
0.70508
0.70898
0.70898
0.71484
0.71484
0.71484
0.7207
0.7207
0.7207
0.7207
0.7207
0.7207
0.7207
0.7207
0.72461
0.72461
0.72461
0.72461
0.72461
0.73438
0.75
0.76563
0.78516
0.78906
0.7793
0.74414
0.70898
0.67969
0.66992
0.67578
0.66992
0.66992
0.67969
0.68555
0.68945
0.69531
0.69922
0.70508
0.70898
0.70898
0.71484
0.71484
0.7207
0.75
0.83398
0.91016
0.81445
0.58398
0.43945
0.48438
0.60547
0.7207
0.84961
1.0098
1.1387
1.1602
1.0137
0.84961
0.73047
0.67969
0.66406
0.6543
0.65039
0.64453
0.64063
0.63477
0.63477
0.62891
0.62891
0.61914
0.61914
0.61523
0.60938
0.60547
0.60547
0.60547
0.60547
0.60547
0.61523
0.625
0.64063
0.6543
0.66992
0.67969
0.69531
0.70508
0.7207
0.73047
0.73438
0.73438
0.73438
0.72461
0.72461
0.7207
0.7207
0.71484
0.71484
0.70898
0.70508
0.70508
0.69922
0.69922
0.69922
0.69922
0.69922
0.69922
0.69922
0.70508
0.70898
0.70898
0.71484
0.71484
0.71484
0.71484
0.7207
0.7207
0.7207
0.7207
0.7207
0.72461
0.72461
0.72461
0.72461
0.72461
0.72461
0.72461
0.72461
0.72461
0.72461
0.72461
0.72461
0.73438
0.75391
0.76953
0.78516
0.78906
0.77539
0.74023
0.69922
0.67969
0.67578
0.67578
0.67969
0.67969
0.68555
0.69531
0.69531
0.69922
0.70508
0.70508
0.71484
0.71484
0.71484
0.7207
0.72461
0.75391
0.84961
0.92383
0.82422
0.58398
0.44922
0.49414
0.60547
0.70508
0.83398
0.99414
1.1191
1.1348
1
0.83398
0.72461
0.67969
0.66992
0.66016
0.65039
0.64453
0.64063
0.64063
0.63477
0.63477
0.63477
0.62891
0.625
0.61914
0.61914
0.61523
0.61523
0.61523
0.61523
0.625
0.63477
0.65039
0.66016
0.66992
0.67969
0.68945
0.69922
0.70898
0.71484
0.72461
0.72461
0.73047
0.72461
0.71484
0.71484
0.70898
0.70508
0.69922
0.69922
0.69531
0.69531
0.69531
0.68945
0.68945
0.68945
0.68555
0.68555
0.68555
0.68555
0.68555
0.69531
0.69531
0.69922
0.70508
0.70508
0.70508
0.70508
0.70508
0.70898
0.70898
0.71484
0.71484
0.71484
0.71484
0.71484
0.71484
0.71484
0.71484
0.7207
0.7207
0.7207
0.7207
0.7207
0.7207
0.73438
0.75391
0.77539
0.78516
0.7793
0.74414
0.70508
0.67578
0.66406
0.66406
0.66406
0.66406
0.67578
0.68555
0.68945
0.69531
0.69531
0.69922
0.69922
0.70508
0.70508
0.70508
0.70508
0.73047
0.80469
0.9043
0.85938
0.64453
0.46094
0.43555
0.57422
0.68555
0.81055
0.96484
1.1094
1.1484
1.0488
0.87891
0.74023
0.67969
0.66016
0.65039
0.64453
0.64063
0.64063
0.63477
0.62891
0.62891
0.625
0.61914
0.61523
0.61523
0.60938
0.60938
0.60547
0.59961
0.60547
0.60547
0.60938
0.61914
0.63477
0.65039
0.66016
0.67578
0.68945
0.69922
0.71484
0.72461
0.73438
0.74023
0.73438
0.73047
0.7207
0.7207
0.71484
0.71484
0.70898
0.70508
0.70508
0.69922
0.69922
0.69922
0.69922
0.69922
0.69922
0.69922
0.69922
0.69922
0.70508
0.70508
0.70508
0.70508
0.71484
0.71484
0.71484
0.7207
0.7207
0.7207
0.7207
0.7207
0.7207
0.7207
0.7207
0.7207
0.7207
0.7207
0.7207
0.7207
0.7207
0.72461
0.72461
0.73047
0.74414
0.76563
0.78516
0.78516
0.76953
0.73438
0.69922
0.67578
0.66992
0.66992
0.67578
0.67578
0.68555
0.68945
0.69531
0.69922
0.70508
0.70508
0.70898
0.70898
0.70898
0.71484
0.7207
0.76563
0.85938
0.9043
0.76563
0.5293
0.43945
0.51953
0.65039
0.75977
0.88867
1.0449
1.1543
1.1641
1
0.83008
0.7207
0.67578
0.66016
0.65039
0.64063
0.64063
0.63477
0.63477
0.62891
0.62891
0.61914
0.61523
0.60938
0.60938
0.60547
0.60547
0.59961
0.5957
0.5957
0.60547
0.61523
0.625
0.64063
0.6543
0.66992
0.67969
0.69531
0.71484
0.72461
0.73438
0.74023
0.74414
0.74023
0.73438
0.72461
0.72461
0.7207
0.7207
0.7207
0.71484
0.71484
0.70898
0.70898
0.70898
0.70898
0.70508
0.70508
0.70508
0.70508
0.70898
0.71484
0.71484
0.71484
0.71484
0.7207
0.7207
0.7207
0.72461
0.72461
0.72461
0.72461
0.72461
0.72461
0.72461
0.72461
0.73047
0.73047
0.72461
0.72461
0.72461
0.72461
0.72461
0.73047
0.74023
0.76563
0.78516
0.79492
0.79883
0.76953
0.72461
0.68945
0.67578
0.66992
0.67578
0.67578
0.67969
0.68555
0.68945
0.69531
0.69922
0.70508
0.70508
0.70508
0.70898
0.70898
0.70508
0.72461
0.78906
0.88867
0.91406
0.70508
0.49023
0.44531
0.53516
0.64063
0.75391
0.91406
1.0703
1.1289
1.0488
0.88867
0.75
0.68945
0.66992
0.6543
0.65039
0.64453
0.64063
0.64063
0.63477
0.63477
0.63477
0.62891
0.625
0.61914
0.61523
0.61523
0.61523
0.61523
0.61523
0.61523
0.61914
0.62891
0.64063
0.65039
0.66016
0.67578
0.68555
0.69531
0.70898
0.7207
0.72461
0.73438
0.73438
0.73047
0.72461
0.7207
0.71484
0.70898
0.70898
0.70898
0.70898
0.70898
0.70508
0.70508
0.70508
0.70508
0.70508
0.70508
0.70508
0.70508
0.70898
0.71484
0.71484
0.71484
0.7207
0.7207
0.7207
0.72461
0.7207
0.7207
0.7207
0.72461
0.72461
0.72461
0.72461
0.72461
0.72461
0.72461
0.72461
0.72461
0.72461
0.72461
0.74023
0.75977
0.7793
0.78906
0.79492
0.76953
0.73047
0.69531
0.67578
0.67578
0.67578
0.67578
0.67969
0.68945
0.69531
0.69922
0.69922
0.70508
0.70898
0.71484
0.71484
0.71484
0.71484
0.7207
0.7793
0.875
0.9043
0.71484
0.49414
0.43945
0.53906
0.66406
0.7793
0.92383
1.0801
1.1641
1.1094
0.94922
0.78906
0.69922
0.66992
0.6543
0.64453
0.63477
0.63477
0.62891
0.62891
0.62891
0.61914
0.61914
0.61523
0.61523
0.60938
0.60547
0.59961
0.5957
0.5957
0.5957
0.5957
0.60547
0.61914
0.63477
0.65039
0.66992
0.67969
0.69531
0.71484
0.72461
0.73438
0.74023
0.74023
0.74023
0.73438
0.73438
0.73047
0.72461
0.72461
0.7207
0.71484
0.71484
0.71484
0.71484
0.71484
0.70898
0.70898
0.70898
0.70898
0.70898
0.71484
0.71484
0.7207
0.72461
0.72461
0.73047
0.73438
0.73438
0.73438
0.73438
0.73438
0.73438
0.73438
0.73438
0.73438
0.74023
0.74023
0.74023
0.74023
0.74023
0.74023
0.74023
0.75
0.76953
0.78906
0.80469
0.81055
0.78516
0.75
0.71484
0.69531
0.68945
0.68555
0.68555
0.68945
0.69922
0.70508
0.70898
0.71484
0.7207
0.7207
0.7207
0.72461
0.72461
0.72461
0.73438
0.77539
0.875
0.93555
0.79883
0.57031
0.46094
0.50977
0.61523
0.7207
0.85938
1.0195
1.125
1.1289
0.95508
0.79883
0.70508
0.67578
0.66992
0.66016
0.65039
0.64453
0.64453
0.64063
0.64063
0.64063
0.63477
0.63477
0.62891
0.625
0.61914
0.61914
0.61523
0.61523
0.61523
0.61914
0.62891
0.64063
0.6543
0.66406
0.67969
0.68945
0.69922
0.70898
0.7207
0.73438
0.74023
0.74023
0.73438
0.73047
0.72461
0.72461
0.7207
0.7207
0.71484
0.71484
0.70508
0.70508
0.70508
0.70508
0.69922
0.69922
0.69922
0.69922
0.69922
0.69922
0.70508
0.70508
0.70898
0.70898
0.70898
0.71484
0.71484
0.7207
0.7207
0.7207
0.7207
0.72461
0.72461
0.72461
0.72461
0.72461
0.72461
0.72461
0.72461
0.72461
0.72461
0.73047
0.73047
0.74414
0.76563
0.78516
0.78906
0.79492
0.75977
0.7207
0.68945
0.67578
0.67578
0.67578
0.67578
0.68555
0.68945
0.69531
0.69922
0.70508
0.70898
0.71484
0.71484
0.7207
0.7207
0.7207
0.74023
0.81055
0.9043
0.91406
0.66406
0.4707
0.43945
0.58008
0.69531
0.81445
0.96875
1.1191
1.1738
1.084
0.91406
0.76953
0.69922
0.66992
0.66016
0.6543
0.65039
0.64063
0.63477
0.63477
0.62891
0.62891
0.61914
0.61914
0.61523
0.60938
0.60938
0.60547
0.60547
0.60547
0.60547
0.60938
0.625
0.63477
0.65039
0.66016
0.67578
0.68945
0.69922
0.71484
0.72461
0.73438
0.74023
0.74023
0.73438
0.73047
0.72461
0.7207
0.7207
0.71484
0.71484
0.71484
0.71484
0.70898
0.70898
0.70898
0.70508
0.70508
0.70898
0.70508
0.70898
0.70898
0.71484
0.71484
0.7207
0.72461
0.72461
0.72461
0.72461
0.72461
0.72461
0.72461
0.72461
0.72461
0.72461
0.72461
0.72461
0.72461
0.72461
0.72461
0.72461
0.72461
0.73438
0.75391
0.77539
0.78516
0.79492
0.78516
0.75
0.70508
0.67578
0.66992
0.66992
0.66992
0.67969
0.68555
0.69531
0.69531
0.69922
0.70508
0.70508
0.70898
0.70898
0.71484
0.71484
0.7207
0.75977
0.84961
0.9043
0.7793
0.55078
0.44531
0.51563
0.63477
0.73438
0.85938
1.0137
1.1387
1.1543
1.0039
0.83984
0.72461
0.67578
0.66406
0.6543
0.65039
0.64453
0.64063
0.64063
0.63477
0.62891
0.625
0.625
0.61914
0.61914
0.61523
0.60938
0.60547
0.60547
0.60938
0.61523
0.62891
0.64063
0.6543
0.66992
0.67969
0.69531
0.70898
0.7207
0.73438
0.74023
0.74414
0.74023
0.73438
0.72461
0.7207
0.71484
0.69922
0.68945
0.67578
0.66406
0.6543
0.65039
0.6543
0.69531
0.74023
0.7793
0.79883
0.81055
0.81055
0.79883
0.77539
0.73047
0.70508
0.74023
0.82031
0.86523
0.86914
0.84375
0.82031
0.80469
0.78516
0.77539
0.76563
0.75391
0.75
0.75
0.74414
0.74414
0.74414
0.74023
0.74023
0.74414
0.75
0.75977
0.7793
0.79883
0.81055
0.81445
0.79492
0.75
0.70898
0.67969
0.67578
0.67578
0.66992
0.66992
0.67578
0.68555
0.68555
0.68945
0.68555
0.67969
0.67578
0.66992
0.66016
0.65039
0.64453
0.66992
0.75
0.80469
0.67578
0.43555
0.31445
0.38086
0.50586
0.61914
0.76563
0.93555
1.0488
1.0586
0.89453
0.73438
0.64063
0.60547
0.5957
0.58984
0.58984
0.58984
0.58984
0.58984
0.58984
0.58984
0.5957
0.58984
0.58984
0.58984
0.58984
0.58398
0.58398
0.58398
0.58984
0.5957
0.60938
0.625
0.63477
0.6543
0.66992
0.67969
0.69922
0.71484
0.72461
0.73438
0.74023
0.74414
0.74414
0.74414
0.74023
0.73438
0.73047
0.72461
0.72461
0.72461
0.72461
0.72461
0.72461
0.7207
0.7207
0.7207
0.7207
0.72461
0.72461
0.72461
0.72461
0.73047
0.73047
0.73438
0.73438
0.73438
0.73438
0.73438
0.73438
0.74023
0.74023
0.74023
0.74023
0.73438
0.73438
0.73438
0.73438
0.74023
0.74023
0.74023
0.73438
0.73438
0.73438
0.74414
0.76563
0.78516
0.79492
0.79492
0.77539
0.73047
0.69531
0.67969
0.67969
0.67969
0.67969
0.68555
0.69531
0.69922
0.70508
0.70508
0.70898
0.71484
0.71484
0.7207
0.7207
0.7207
0.73438
0.79492
0.88867
0.91992
0.7207
0.49414
0.43945
0.53906
0.66992
0.78516
0.93555
1.084
1.1738
1.125
0.96875
0.80469
0.70898
0.67969
0.66406
0.6543
0.65039
0.64063
0.64063
0.63477
0.63477
0.62891
0.62891
0.61914
0.61523
0.60938
0.60547
0.5957
0.5957
0.5957
0.5957
0.59961
0.60938
0.61914
0.63477
0.65039
0.66992
0.68555
0.69922
0.71484
0.72461
0.73438
0.74023
0.74023
0.74023
0.73438
0.73438
0.73438
0.73047
0.72461
0.72461
0.7207
0.7207
0.71484
0.71484
0.71484
0.71484
0.71484
0.71484
0.71484
0.71484
0.71484
0.71484
0.7207
0.7207
0.72461
0.72461
0.72461
0.72461
0.72461
0.72461
0.73047
0.73438
0.73438
0.73438
0.73438
0.73438
0.73047
0.73047
0.73438
0.73438
0.73438
0.73438
0.73438
0.73438
0.73438
0.74023
0.75977
0.7793
0.78906
0.79492
0.7793
0.74023
0.70508
0.68555
0.67969
0.68555
0.68555
0.68555
0.69531
0.69531
0.69922
0.70508
0.70508
0.70898
0.71484
0.71484
0.71484
0.7207
0.73047
0.76953
0.86914
0.92383
0.79492
0.56055
0.45508
0.50977
0.61914
0.7207
0.85547
1.0137
1.1191
1.125
0.94922
0.79883
0.70898
0.67969
0.66992
0.66016
0.6543
0.65039
0.64063
0.64063
0.63477
0.62891
0.62891
0.625
0.625
0.625
0.61914
0.61523
0.61523
0.61523
0.61523
0.61914
0.62891
0.64063
0.6543
0.66992
0.67969
0.69531
0.70508
0.71484
0.72461
0.73438
0.74023
0.74414
0.74023
0.73047
0.7207
0.7207
0.71484
0.71484
0.71484
0.70508
0.70508
0.69922
0.69922
0.69922
0.69531
0.69531
0.69531
0.69531
0.69922
0.69922
0.69922
0.69922
0.70508
0.70508
0.70898
0.71484
0.71484
0.71484
0.71484
0.71484
0.71484
0.71484
0.71484
0.71484
0.71484
0.71484
0.71484
0.71484
0.71484
0.71484
0.71484
0.70898
0.70898
0.7207
0.74023
0.75977
0.77539
0.78516
0.76953
0.73438
0.69922
0.67578
0.66992
0.66992
0.66992
0.67578
0.68555
0.69531
0.69922
0.70508
0.70508
0.70508
0.70508
0.70508
0.70508
0.70898
0.7207
0.75977
0.85547
0.91406
0.79492
0.56055
0.43555
0.49414
0.61914
0.72461
0.85938
1.0195
1.1445
1.1543
1
0.83398
0.7207
0.66992
0.6543
0.64453
0.63477
0.62891
0.625
0.61914
0.61523
0.61523
0.60938
0.60938
0.60938
0.60547
0.59961
0.5957
0.58984
0.58984
0.58984
0.58984
0.60547
0.61523
0.63477
0.65039
0.66016
0.67578
0.68945
0.70508
0.71484
0.73047
0.73438
0.73438
0.73047
0.72461
0.7207
0.7207
0.71484
0.71484
0.70898
0.70508
0.70508
0.70508
0.69922
0.69922
0.69922
0.69922
0.69922
0.69922
0.69922
0.69922
0.69922
0.70508
0.70508
0.70508
0.70898
0.71484
0.71484
0.71484
0.71484
0.7207
0.7207
0.72461
0.7207
0.7207
0.7207
0.72461
0.72461
0.7207
0.7207
0.7207
0.7207
0.72461
0.72461
0.74023
0.76563
0.7793
0.78906
0.79492
0.76953
0.73047
0.69531
0.67969
0.67969
0.67969
0.68555
0.68555
0.69531
0.69531
0.69922
0.69922
0.70508
0.70508
0.70898
0.70898
0.71484
0.71484
0.72461
0.7793
0.875
0.91016
0.74414
0.51953
0.44922
0.53516
0.64063
0.73047
0.86914
1.0254
1.125
1.1289
0.94922
0.79492
0.70508
0.67578
0.66016
0.6543
0.65039
0.65039
0.64453
0.64063
0.64063
0.63477
0.63477
0.62891
0.62891
0.62891
0.625
0.625
0.625
0.61914
0.625
0.63477
0.64453
0.6543
0.66992
0.67969
0.69531
0.70508
0.71484
0.72461
0.73438
0.74023
0.74414
0.74023
0.73438
0.73047
0.72461
0.7207
0.71484
0.71484
0.70508
0.69922
0.69922
0.69531
0.68945
0.68945
0.68945
0.68945
0.68945
0.68945
0.68945
0.68945
0.69531
0.69922
0.69922
0.70508
0.70508
0.70898
0.71484
0.71484
0.71484
0.7207
0.7207
0.7207
0.7207
0.7207
0.7207
0.7207
0.7207
0.7207
0.7207
0.7207
0.7207
0.7207
0.72461
0.73438
0.75391
0.76953
0.78516
0.78516
0.75977
0.7207
0.68555
0.66992
0.66992
0.66992
0.66992
0.67578
0.67969
0.68555
0.68945
0.69531
0.69922
0.70508
0.70508
0.70508
0.70898
0.70898
0.72461
0.78906
0.88867
0.91406
0.69922
0.48438
0.43945
0.54492
0.66016
0.77539
0.92383
1.084
1.1602
1.0938
0.92969
0.77539
0.69531
0.66992
0.66016
0.65039
0.64453
0.64063
0.64063
0.63477
0.63477
0.62891
0.625
0.61914
0.61914
0.61523
0.60938
0.60938
0.60547
0.60547
0.60547
0.60938
0.61914
0.62891
0.64453
0.66016
0.67578
0.69531
0.70898
0.7207
0.73438
0.74023
0.74414
0.74414
0.74023
0.73438
0.73047
0.72461
0.7207
0.7207
0.71484
0.71484
0.70898
0.70508
0.70508
0.70508
0.70508
0.70508
0.70508
0.70508
0.70898
0.71484
0.71484
0.71484
0.71484
0.7207
0.7207
0.7207
0.7207
0.72461
0.72461
0.72461
0.72461
0.72461
0.72461
0.72461
0.72461
0.72461
0.72461
0.72461
0.72461
0.72461
0.72461
0.72461
0.74023
0.75977
0.77539
0.78516
0.78906
0.75977
0.71484
0.68555
0.67578
0.66992
0.67578
0.66992
0.67578
0.68555
0.69531
0.69922
0.69922
0.70508
0.70898
0.71484
0.71484
0.71484
0.71484
0.73047
0.78906
0.88477
0.90039
0.68945
0.48047
0.43945
0.56055
0.67969
0.79492
0.93555
1.084
1.1699
1.1094
0.95508
0.79492
0.69922
0.66992
0.66016
0.65039
0.64453
0.64063
0.64063
0.63477
0.63477
0.62891
0.625
0.61914
0.61523
0.61523
0.60938
0.60547
0.60547
0.59961
0.59961
0.60938
0.61914
0.63477
0.65039
0.66406
0.67969
0.69531
0.70508
0.7207
0.73438
0.74414
0.75
0.75
0.74414
0.74023
0.73438
0.73047
0.72461
0.72461
0.72461
0.7207
0.7207
0.72461
0.7207
0.7207
0.7207
0.7207
0.72461
0.72461
0.72461
0.72461
0.72461
0.73047
0.73438
0.73438
0.73438
0.73438
0.73438
0.73438
0.73438
0.74023
0.73438
0.73438
0.73438
0.73438
0.73438
0.73438
0.73438
0.74023
0.73438
0.73438
0.73438
0.74414
0.76563
0.7793
0.79492
0.79492
0.77539
0.73047
0.69531
0.67969
0.67578
0.67969
0.67578
0.67969
0.68555
0.68945
0.69531
0.69922
0.69922
0.70508
0.70508
0.70508
0.70508
0.70508
0.71484
0.76953
0.875
0.91992
0.77539
0.54492
0.44531
0.50977
0.61523
0.7207
0.86523
1.0293
1.1289
1.0801
0.93555
0.78516
0.69922
0.67578
0.66406
0.6543
0.65039
0.65039
0.64453
0.64063
0.64063
0.63477
0.63477
0.63477
0.62891
0.62891
0.625
0.61914
0.61914
0.61914
0.61914
0.62891
0.63477
0.65039
0.66406
0.67578
0.68555
0.69922
0.70898
0.7207
0.73438
0.74023
0.74414
0.74414
0.74023
0.73047
0.72461
0.7207
0.71484
0.71484
0.70898
0.70508
0.69922
0.69922
0.69922
0.69922
0.69922
0.69922
0.69922
0.69922
0.69922
0.70508
0.70508
0.70508
0.70508
0.70508
0.70898
0.70898
0.70898
0.71484
0.71484
0.71484
0.71484
0.71484
0.71484
0.71484
0.71484
0.71484
0.71484
0.7207
0.71484
0.7207
0.7207
0.73438
0.75391
0.76953
0.78516
0.78516
0.76563
0.73047
0.69531
0.67969
0.67578
0.67578
0.67578
0.68555
0.69531
0.69922
0.70508
0.70898
0.71484
0.7207
0.7207
0.7207
0.7207
0.7207
0.73047
0.7793
0.875
0.91406
0.75977
0.52539
0.43945
0.52539
0.64453
0.75977
0.90039
1.0645
1.1699
1.1348
0.98438
0.82031
0.71484
0.67969
0.66992
0.66016
0.6543
0.65039
0.64063
0.64063
0.63477
0.62891
0.62891
0.61914
0.61523
0.61523
0.60938
0.60547
0.59961
0.59961
0.59961
0.60547
0.60938
0.625
0.63477
0.65039
0.66406
0.67969
0.69922
0.71484
0.72461
0.73438
0.74023
0.74414
0.74414
0.74023
0.73438
0.73047
0.72461
0.72461
0.7207
0.7207
0.71484
0.70898
0.70898
0.70898
0.70898
0.70898
0.70508
0.70508
0.70898
0.70898
0.70898
0.71484
0.71484
0.7207
0.72461
0.72461
0.72461
0.72461
0.72461
0.72461
0.73047
0.73438
0.73047
0.73047
0.73047
0.73047
0.73047
0.73438
0.73438
0.73438
0.74023
0.74414
0.75977
0.7793
0.79492
0.79883
0.78516
0.75
0.71484
0.68945
0.68555
0.68555
0.68555
0.68555
0.69531
0.69922
0.70508
0.70508
0.70898
0.71484
0.71484
0.71484
0.71484
0.7207
0.7207
0.75391
0.83984
0.92383
0.84961
0.61914
0.46094
0.44922
0.58398
0.67969
0.80469
0.96875
1.1035
1.1289
1
0.83984
0.73047
0.68555
0.67578
0.66406
0.66016
0.6543
0.65039
0.65039
0.65039
0.64063
0.64063
0.64063
0.63477
0.62891
0.62891
0.625
0.61914
0.61914
0.625
0.63477
0.64063
0.65039
0.66016
0.67578
0.68555
0.69922
0.70898
0.7207
0.73047
0.74023
0.74414
0.74414
0.74023
0.73438
0.72461
0.7207
0.7207
0.7207
0.7207
0.71484
0.70898
0.70508
0.69922
0.69922
0.69922
0.69922
0.69922
0.69922
0.69922
0.69922
0.69922
0.69922
0.70508
0.71484
0.71484
0.7207
0.7207
0.7207
0.72461
0.73047
0.74414
0.76563
0.7793
0.78906
0.79492
0.7793
0.74023
0.69922
0.67578
0.66992
0.66992
0.66992
0.67969
0.68945
0.69531
0.69531
0.70508
0.70898
0.71484
0.7207
0.72461
0.72461
0.72461
0.72461
0.75977
0.85547
0.91992
0.81445
0.58398
0.44922
0.50586
0.625
0.73047
0.85938
1.0254
1.1484
1.1641
1.0098
0.83984
0.73047
0.68555
0.66992
0.66016
0.6543
0.64453
0.64453
0.64063
0.64063
0.63477
0.63477
0.62891
0.61914
0.61523
0.60938
0.60938
0.60547
0.60547
0.60547
0.60547
0.61523
0.62891
0.64063
0.6543
0.66992
0.67969
0.69531
0.70898
0.7207
0.73047
0.74023
0.74023
0.74023
0.73438
0.72461
0.7207
0.7207
0.71484
0.71484
0.71484
0.71484
0.71484
0.70898
0.70898
0.70898
0.70898
0.70898
0.70898
0.71484
0.71484
0.71484
0.7207
0.7207
0.7207
0.72461
0.72461
0.72461
0.73047
0.73438
0.73438
0.73047
0.73047
0.73047
0.73047
0.73047
0.72461
0.72461
0.72461
0.73047
0.73438
0.73438
0.73438
0.73047
0.72461
0.73047
0.73047
0.72461
0.72461
0.72461
0.73047
0.74414
0.75977
0.7793
0.78516
0.77539
0.74414
0.70508
0.67578
0.66992
0.66992
0.66992
0.67578
0.67969
0.68555
0.69531
0.69531
0.70508
0.70898
0.71484
0.71484
0.7207
0.7207
0.72461
0.76563
0.85547
0.91406
0.80469
0.58008
0.46484
0.5293
0.64063
0.73438
0.84375
0.99414
1.125
1.1484
1.0137
0.85547
0.73438
0.68945
0.67969
0.66992
0.66016
0.66016
0.66016
0.66016
0.6543
0.6543
0.65039
0.65039
0.65039
0.64453
0.64063
0.63477
0.63477
0.62891
0.62891
0.64063
0.65039
0.66406
0.67969
0.69531
0.70508
0.71484
0.72461
0.73438
0.74023
0.75
0.75
0.75
0.74414
0.74023
0.74023
0.73438
0.73438
0.73438
0.73047
0.72461
0.72461
0.72461
0.72461
0.7207
0.7207
0.7207
0.7207
0.7207
0.71484
0.7207
0.7207
0.7207
0.72461
0.72461
0.72461
0.72461
0.73047
0.73438
0.73438
0.73438
0.73438
0.73438
0.73438
0.73047
0.72461
0.72461
0.72461
0.72461
0.72461
0.72461
0.72461
0.72461
0.72461
0.72461
0.72461
0.72461
0.72461
0.72461
0.73438
0.75391
0.7793
0.78906
0.79492
0.7793
0.74414
0.70508
0.67969
0.66992
0.66992
0.66992
0.67969
0.69531
0.69922
0.69922
0.70508
0.70508
0.71484
0.7207
0.72461
0.72461
0.72461
0.73438
0.78906
0.88477
0.92383
0.75391
0.53516
0.46094
0.54492
0.66406
0.76953
0.9043
1.0645
1.1602
1.1094
0.95508
0.79883
0.71484
0.68555
0.67578
0.66016
0.6543
0.6543
0.65039
0.64453
0.64063
0.63477
0.62891
0.62891
0.61914
0.61914
0.61914
0.61523
0.60938
0.60938
0.60938
0.61523
0.625
0.63477
0.65039
0.66406
0.67969
0.69531
0.70898
0.72461
0.73438
0.74414
0.75
0.75
0.74414
0.74414
0.74023
0.73438
0.73047
0.72461
0.72461
0.72461
0.7207
0.7207
0.7207
0.7207
0.7207
0.7207
0.7207
0.7207
0.7207
0.72461
0.72461
0.73047
0.72461
0.72461
0.73047
0.73438
0.73438
0.73438
0.73438
0.73438
0.73047
0.72461
0.72461
0.72461
0.73047
0.73438
0.73438
0.73047
0.73047
0.73047
0.72461
0.72461
0.73438
0.75391
0.77539
0.78516
0.78906
0.76953
0.73047
0.69531
0.67578
0.67578
0.67578
0.67578
0.67578
0.68555
0.69531
0.69922
0.70508
0.70508
0.70898
0.70898
0.70508
0.70898
0.70898
0.7207
0.75977
0.84961
0.9043
0.77539
0.54492
0.43945
0.51563
0.63477
0.73438
0.85938
1.0098
1.125
1.1387
0.99414
0.83008
0.71484
0.67578
0.66016
0.65039
0.64063
0.63477
0.63477
0.62891
0.62891
0.625
0.61914
0.61914
0.61914
0.60938
0.60547
0.60547
0.59961
0.5957
0.5957
0.59961
0.60938
0.625
0.64063
0.6543
0.66992
0.68555
0.69922
0.71484
0.73047
0.74023
0.74414
0.74414
0.74414
0.74023
0.73438
0.73047
0.72461
0.7207
0.7207
0.71484
0.71484
0.70898
0.70508
0.69922
0.69922
0.69922
0.69922
0.69531
0.69531
0.69922
0.69922
0.70508
0.70898
0.70898
0.71484
0.71484
0.70898
0.70898
0.71484
0.71484
0.71484
0.71484
0.71484
0.71484
0.71484
0.71484
0.71484
0.7207
0.71484
0.71484
0.71484
0.71484
0.71484
0.72461
0.73438
0.75391
0.76953
0.7793
0.75977
0.72461
0.67969
0.66016
0.6543
0.6543
0.66016
0.66406
0.67578
0.67969
0.68555
0.68555
0.69531
0.69531
0.69922
0.69922
0.69922
0.69922
0.70898
0.75
0.84961
0.91016
0.78516
0.55469
0.44531
0.49414
0.60547
0.70508
0.83984
1.0039
1.1191
1.1289
0.94531
0.78516
0.69531
0.66406
0.6543
0.64453
0.64063
0.63477
0.62891
0.62891
0.62891
0.62891
0.625
0.61914
0.61523
0.61523
0.60938
0.60547
0.59961
0.5957
0.5957
0.59961
0.60938
0.61914
0.63477
0.65039
0.66016
0.67578
0.68945
0.69922
0.71484
0.72461
0.73438
0.74023
0.73438
0.73047
0.72461
0.7207
0.71484
0.71484
0.70898
0.70508
0.70508
0.70508
0.70508
0.70508
0.70508
0.70508
0.70508
0.70508
0.70508
0.70898
0.70898
0.71484
0.71484
0.71484
0.71484
0.7207
0.7207
0.7207
0.7207
0.72461
0.72461
0.72461
0.73047
0.73047
0.72461
0.72461
0.72461
0.72461
0.72461
0.72461
0.72461
0.72461
0.72461
0.73438
0.75391
0.76953
0.78516
0.78906
0.77539
0.73438
0.69922
0.67578
0.66992
0.66992
0.66992
0.66992
0.67969
0.68555
0.69531
0.69922
0.70508
0.70508
0.70508
0.70898
0.70898
0.70898
0.71484
0.75391
0.84375
0.90039
0.75977
0.52539
0.42578
0.50977
0.63477
0.74414
0.875
1.0293
1.1387
1.1484
0.98438
0.82422
0.70898
0.66406
0.65039
0.64453
0.63477
0.62891
0.62891
0.625
0.61914
0.61914
0.61523
0.60938
0.60547
0.59961
0.5957
0.58984
0.58398
0.58008
0.58008
0.58398
0.5957
0.60547
0.61914
0.62891
0.65039
0.66992
0.68555
0.69922
0.71484
0.73047
0.74023
0.74023
0.73438
0.72461
0.7207
0.7207
0.7207
0.71484
0.71484
0.70898
0.70508
0.70508
0.70508
0.70508
0.69922
0.69922
0.69922
0.69922
0.69922
0.69922
0.70508
0.70508
0.70898
0.70898
0.70898
0.71484
0.7207
0.7207
0.71484
0.7207
0.7207
0.72461
0.7207
0.72461
0.72461
0.7207
0.7207
0.7207
0.7207
0.7207
0.72461
0.72461
0.72461
0.72461
0.74023
0.75977
0.7793
0.78906
0.79492
0.77539
0.74023
0.69922
0.67578
0.66992
0.67578
0.67578
0.67578
0.68555
0.68945
0.69531
0.69922
0.69922
0.69922
0.69922
0.70508
0.70508
0.70508
0.71484
0.75977
0.86523
0.91406
0.76953
0.54492
0.44531
0.50977
0.61523
0.70898
0.84961
1.0039
1.1035
1.1094
0.93945
0.78516
0.69922
0.67578
0.66406
0.6543
0.6543
0.65039
0.64453
0.64063
0.63477
0.62891
0.62891
0.61914
0.61914
0.61523
0.60938
0.60547
0.59961
0.5957
0.5957
0.60547
0.61523
0.625
0.64063
0.6543
0.66992
0.68945
0.69922
0.70898
0.7207
0.73047
0.73438
0.74023
0.73438
0.73438
0.72461
0.7207
0.7207
0.71484
0.71484
0.70898
0.70508
0.69922
0.69922
0.69922
0.69531
0.69531
0.68945
0.68945
0.69531
0.69922
0.69922
0.69922
0.70508
0.70508
0.70898
0.71484
0.71484
0.71484
0.71484
0.7207
0.7207
0.7207
0.7207
0.7207
0.7207
0.72461
0.7207
0.7207
0.7207
0.7207
0.7207
0.7207
0.73047
0.74414
0.75977
0.77539
0.78516
0.76563
0.73047
0.69531
0.66992
0.66016
0.66016
0.66406
0.66992
0.67969
0.68555
0.68945
0.69531
0.69922
0.69922
0.69922
0.70508
0.70508
0.70898
0.71484
0.75391
0.84375
0.9043
0.78906
0.55469
0.43945
0.50586
0.62891
0.73438
0.86523
1.0195
1.1387
1.1543
1
0.83008
0.71484
0.66992
0.66016
0.65039
0.64063
0.64063
0.63477
0.62891
0.625
0.61914
0.61523
0.60938
0.60547
0.59961
0.5957
0.58984
0.58398
0.58398
0.58398
0.58398
0.58984
0.60547
0.61523
0.62891
0.64453
0.66406
0.67969
0.69922
0.71484
0.72461
0.73047
0.73438
0.73438
0.73438
0.73047
0.72461
0.72461
0.72461
0.72461
0.72461
0.7207
0.7207
0.71484
0.71484
0.70898
0.70508
0.70898
0.70898
0.70898
0.70898
0.71484
0.71484
0.71484
0.71484
0.7207
0.7207
0.7207
0.72461
0.72461
0.72461
0.72461
0.7207
0.7207
0.7207
0.7207
0.71484
0.70898
0.70898
0.70898
0.70508
0.70898
0.7207
0.74414
0.76563
0.77539
0.7793
0.75
0.71484
0.67969
0.66992
0.66992
0.66992
0.66992
0.67969
0.68945
0.69531
0.70508
0.70508
0.71484
0.71484
0.7207
0.7207
0.72461
0.72461
0.74023
0.79883
0.90039
0.92969
0.73438
0.52539
0.47461
0.57031
0.66406
0.75
0.88477
1.0391
1.125
1.0645
0.91406
0.76953
0.68555
0.66406
0.6543
0.64453
0.63477
0.62891
0.62891
0.625
0.61914
0.61914
0.61914
0.61523
0.60938
0.60938
0.60938
0.60938
0.60938
0.60938
0.61523
0.625
0.63477
0.65039
0.66406
0.67969
0.69531
0.70508
0.7207
0.73438
0.74414
0.75977
0.76563
0.76563
0.75977
0.75
0.75
0.74414
0.74023
0.73047
0.72461
0.7207
0.71484
0.71484
0.70508
0.70508
0.70508
0.70508
0.69922
0.69531
0.69531
0.69531
0.69531
0.69531
0.69922
0.69922
0.69922
0.69922
0.70508
0.70508
0.70508
0.70508
0.70898
0.70898
0.70898
0.70898
0.71484
0.71484
0.71484
0.7207
0.7207
0.72461
0.72461
0.73438
0.75391
0.77539
0.78516
0.79492
0.7793
0.74414
0.70898
0.68555
0.67969
0.67969
0.67969
0.68555
0.69531
0.69922
0.70508
0.71484
0.7207
0.7207
0.72461
0.72461
0.72461
0.72461
0.73438
0.76953
0.86523
0.92383
0.81055
0.57422
0.46094
0.51563
0.63477
0.74023
0.875
1.0352
1.1484
1.1602
0.99023
0.82422
0.7207
0.67969
0.66406
0.6543
0.65039
0.64453
0.64063
0.64063
0.63477
0.63477
0.62891
0.625
0.61914
0.61523
0.61523
0.60938
0.60547
0.60547
0.60547
0.60547
0.61523
0.62891
0.64063
0.6543
0.66992
0.68555
0.69922
0.7207
0.73438
0.74414
0.75
0.75391
0.74414
0.74414
0.74023
0.73438
0.73047
0.7207
0.7207
0.7207
0.71484
0.71484
0.71484
0.71484
0.70898
0.70898
0.70898
0.70898
0.70898
0.70898
0.70898
0.71484
0.71484
0.71484
0.7207
0.7207
0.7207
0.72461
0.72461
0.72461
0.72461
0.72461
0.72461
0.72461
0.73047
0.73438
0.73438
0.73438
0.73438
0.73438
0.73438
0.73438
0.74414
0.76563
0.78516
0.78906
0.79492
0.76953
0.73438
0.69922
0.68555
0.68555
0.68555
0.68555
0.68945
0.69922
0.70508
0.70508
0.70898
0.71484
0.71484
0.7207
0.7207
0.7207
0.72461
0.73438
0.78906
0.88477
0.91406
0.71484
0.50586
0.46094
0.56055
0.66992
0.76953
0.90039
1.0547
1.1387
1.084
0.93555
0.78516
0.70508
0.67578
0.66016
0.6543
0.65039
0.64063
0.63477
0.63477
0.63477
0.62891
0.625
0.61914
0.61523
0.61523
0.60938
0.60547
0.60547
0.60547
0.60547
0.60938
0.61914
0.63477
0.65039
0.66406
0.67969
0.69531
0.71484
0.7207
0.72461
0.73438
0.74023
0.74023
0.73438
0.73047
0.72461
0.72461
0.7207
0.7207
0.71484
0.71484
0.70898
0.70508
0.69922
0.69922
0.69922
0.70508
0.69922
0.69922
0.70508
0.70508
0.70508
0.70508
0.70898
0.70898
0.71484
0.71484
0.7207
0.7207
0.72461
0.72461
0.72461
0.72461
0.72461
0.72461
0.72461
0.72461
0.72461
0.72461
0.72461
0.72461
0.72461
0.73438
0.74414
0.76563
0.78516
0.78906
0.7793
0.74414
0.70898
0.67969
0.66992
0.66992
0.66992
0.66992
0.67969
0.68555
0.68945
0.69531
0.69922
0.69922
0.70508
0.70508
0.70508
0.70508
0.71484
0.74414
0.83984
0.91992
0.83008
0.60547
0.46094
0.45508
0.59961
0.69922
0.83008
0.99414
1.125
1.1387
0.99414
0.83008
0.72461
0.67578
0.66016
0.6543
0.65039
0.64063
0.63477
0.63477
0.63477
0.62891
0.62891
0.625
0.625
0.61914
0.61523
0.60938
0.60547
0.60547
0.60547
0.60547
0.60938
0.61914
0.62891
0.64453
0.66016
0.67578
0.68945
0.70898
0.7207
0.73438
0.74023
0.74414
0.74023
0.73438
0.73047
0.72461
0.7207
0.7207
0.7207
0.71484
0.71484
0.71484
0.70898
0.70898
0.70898
0.70898
0.70898
0.70898
0.70898
0.70898
0.71484
0.71484
0.71484
0.7207
0.7207
0.7207
0.7207
0.7207
0.7207
0.7207
0.7207
0.7207
0.7207
0.7207
0.7207
0.7207
0.72461
0.72461
0.72461
0.72461
0.72461
0.72461
0.73047
0.74023
0.75977
0.77539
0.78516
0.78906
0.75391
0.71484
0.67969
0.66992
0.66992
0.66992
0.66992
0.67578
0.67969
0.68555
0.68945
0.69531
0.69922
0.70508
0.70508
0.70898
0.70898
0.70898
0.73438
0.80469
0.89453
0.9043
0.65039
0.46484
0.43945
0.58008
0.69531
0.81055
0.95898
1.1035
1.1602
1.0703
0.9043
0.75977
0.68945
0.66992
0.6543
0.65039
0.64063
0.63477
0.62891
0.62891
0.62891
0.61914
0.61523
0.61523
0.60938
0.60547
0.5957
0.58984
0.58398
0.58398
0.58984
0.5957
0.60547
0.61523
0.62891
0.65039
0.66992
0.68945
0.69922
0.7207
0.73047
0.74023
0.74023
0.74023
0.73438
0.73438
0.73047
0.72461
0.72461
0.7207
0.7207
0.71484
0.71484
0.71484
0.70898
0.70898
0.70508
0.70508
0.70508
0.70898
0.70898
0.70898
0.70898
0.70898
0.70898
0.71484
0.7207
0.7207
0.7207
0.72461
0.7207
0.7207
0.72461
0.72461
0.72461
0.72461
0.72461
0.72461
0.72461
0.72461
0.72461
0.72461
0.72461
0.72461
0.73438
0.75
0.76953
0.78516
0.79492
0.78906
0.75391
0.71484
0.68945
0.67969
0.67969
0.67969
0.67969
0.68945
0.69531
0.69922
0.69922
0.70508
0.70508
0.70898
0.70508
0.70898
0.70898
0.71484
0.74414
0.83008
0.91406
0.85547
0.63477
0.4707
0.45508
0.57422
0.66992
0.78516
0.94922
1.0898
1.1152
0.98438
0.82422
0.71484
0.67578
0.66992
0.66016
0.6543
0.65039
0.65039
0.65039
0.64453
0.64063
0.64063
0.63477
0.63477
0.62891
0.62891
0.61914
0.61523
0.61523
0.61523
0.61914
0.62891
0.64063
0.6543
0.66992
0.67969
0.69531
0.70508
0.7207
0.73047
0.74023
0.74414
0.75
0.74414
0.74023
0.74023
0.73438
0.73047
0.72461
0.7207
0.7207
0.7207
0.7207
0.71484
0.71484
0.70898
0.70508
0.70508
0.70508
0.70508
0.70898
0.70898
0.70898
0.71484
0.71484
0.71484
0.71484
0.71484
0.71484
0.7207
0.7207
0.7207
0.7207
0.7207
0.7207
0.7207
0.7207
0.7207
0.72461
0.72461
0.72461
0.72461
0.73047
0.73047
0.74023
0.75391
0.77539
0.78516
0.78906
0.77539
0.74023
0.69922
0.67578
0.66992
0.66992
0.66992
0.67578
0.68555
0.69531
0.69922
0.69922
0.70508
0.70508
0.70508
0.70898
0.71484
0.71484
0.73047
0.7793
0.875
0.91406
0.76563
0.53516
0.44531
0.52539
0.65039
0.75977
0.90039
1.0586
1.1602
1.125
0.96484
0.80469
0.70898
0.67969
0.66406
0.6543
0.65039
0.65039
0.64453
0.64063
0.63477
0.63477
0.62891
0.62891
0.61914
0.61914
0.61523
0.60938
0.60547
0.59961
0.59961
0.59961
0.60938
0.625
0.63477
0.65039
0.66406
0.67969
0.69531
0.71484
0.72461
0.74023
0.74414
0.74414
0.74023
0.74023
0.73438
0.73047
0.72461
0.72461
0.7207
0.7207
0.7207
0.71484
0.71484
0.71484
0.71484
0.71484
0.70898
0.70898
0.71484
0.71484
0.7207
0.7207
0.7207
0.7207
0.7207
0.7207
0.7207
0.7207
0.7207
0.7207
0.72461
0.72461
0.72461
0.72461
0.72461
0.72461
0.73047
0.73047
0.73047
0.73438
0.73438
0.73438
0.74414
0.76563
0.7793
0.78906
0.79492
0.75977
0.7207
0.68945
0.67578
0.67578
0.67578
0.67578
0.67969
0.68555
0.68555
0.68945
0.69531
0.69531
0.69922
0.70508
0.70508
0.70508
0.70898
0.73438
0.80469
0.9043
0.85938
0.65039
0.4707
0.44922
0.58398
0.68555
0.79492
0.93945
1.084
1.1387
1.0449
0.88477
0.75
0.68945
0.66992
0.66016
0.65039
0.65039
0.64063
0.64063
0.63477
0.63477
0.62891
0.62891
0.625
0.61914
0.61914
0.61523
0.61523
0.60938
0.60938
0.61523
0.625
0.63477
0.65039
0.66406
0.67969
0.69922
0.71484
0.72461
0.73438
0.74414
0.74414
0.74414
0.74023
0.73438
0.72461
0.72461
0.7207
0.7207
0.7207
0.71484
0.71484
0.70898
0.70508
0.70508
0.70508
0.69922
0.69922
0.69922
0.69922
0.70508
0.70508
0.70898
0.71484
0.71484
0.7207
0.7207
0.72461
0.72461
0.72461
0.72461
0.72461
0.72461
0.72461
0.72461
0.72461
0.72461
0.72461
0.7207
0.7207
0.7207
0.7207
0.72461
0.73438
0.75391
0.77539
0.78906
0.79492
0.77539
0.74023
0.69922
0.67969
0.67578
0.67578
0.67578
0.67578
0.68555
0.69531
0.69922
0.70508
0.70898
0.71484
0.71484
0.7207
0.7207
0.7207
0.73047
0.78516
0.88477
0.92383
0.76953
0.54492
0.45508
0.5293
0.64453
0.75391
0.90039
1.0645
1.1602
1.1152
0.95508
0.79492
0.70508
0.67969
0.66406
0.6543
0.65039
0.64453
0.64453
0.64063
0.64063
0.63477
0.62891
0.62891
0.62891
0.61914
0.61914
0.61523
0.60938
0.60547
0.60547
0.60938
0.61914
0.62891
0.64453
0.66016
0.67578
0.68555
0.69922
0.7207
0.73438
0.74414
0.75
0.75977
0.75
0.74414
0.74023
0.73438
0.73047
0.72461
0.72461
0.72461
0.72461
0.72461
0.7207
0.7207
0.72461
0.72461
0.7207
0.7207
0.7207
0.7207
0.7207
0.7207
0.72461
0.72461
0.72461
0.72461
0.72461
0.72461
0.72461
0.72461
0.7207
0.7207
0.7207
0.7207
0.7207
0.7207
0.71484
0.71484
0.71484
0.7207
0.7207
0.73438
0.75977
0.77539
0.7793
0.76953
0.74414
0.70508
0.67578
0.66406
0.66016
0.66406
0.66406
0.66992
0.67969
0.68555
0.68945
0.69531
0.69531
0.69922
0.69922
0.70508
0.70508
0.70508
0.73047
0.80469
0.88867
0.83398
0.61523
0.44531
0.43555
0.58984
0.70508
0.82031
0.96875
1.1094
1.1602
1.0586
0.88867
0.75
0.67969
0.6543
0.64453
0.63477
0.62891
0.62891
0.62891
0.625
0.625
0.61914
0.61523
0.61523
0.60938
0.59961
0.5957
0.58984
0.58984
0.58398
0.58984
0.5957
0.60938
0.61914
0.63477
0.65039
0.66992
0.67969
0.69922
0.71484
0.73047
0.73438
0.74023
0.74023
0.74023
0.73438
0.72461
0.72461
0.7207
0.7207
0.7207
0.7207
0.71484
0.71484
0.70898
0.70508
0.70508
0.70508
0.70508
0.70508
0.70508
0.70508
0.70508
0.70508
0.70898
0.71484
0.71484
0.7207
0.7207
0.7207
0.7207
0.7207
0.7207
0.7207
0.7207
0.7207
0.7207
0.7207
0.7207
0.7207
0.7207
0.7207
0.7207
0.73438
0.75391
0.76953
0.78516
0.78906
0.76563
0.72461
0.68555
0.66406
0.66016
0.66016
0.66016
0.66992
0.67969
0.68555
0.68555
0.68945
0.69531
0.69922
0.69922
0.69922
0.69922
0.70508
0.71484
0.77539
0.88477
0.92383
0.75391
0.53516
0.44922
0.51953
0.61914
0.73047
0.87891
1.0449
1.125
1.0586
0.9043
0.75977
0.68555
0.66016
0.65039
0.64063
0.64063
0.63477
0.63477
0.63477
0.62891
0.625
0.625
0.61914
0.61523
0.61523
0.60938
0.60938
0.60547
0.60547
0.60547
0.60547
0.61523
0.62891
0.64063
0.6543
0.66992
0.68555
0.69922
0.71484
0.72461
0.73438
0.74023
0.74023
0.73438
0.72461
0.72461
0.7207
0.71484
0.71484
0.70898
0.70508
0.70508
0.70508
0.70508
0.70508
0.70508
0.70508
0.70508
0.70508
0.70508
0.70508
0.70508
0.70508
0.70508
0.70508
0.70898
0.70898
0.70898
0.70898
0.70898
0.70898
0.70898
0.70898
0.70898
0.70898
0.70898
0.70898
0.71484
0.71484
0.7207
0.71484
0.71484
0.7207
0.73438
0.75391
0.76953
0.7793
0.78516
0.75
0.70898
0.67578
0.66016
0.66016
0.66406
0.66406
0.67578
0.68555
0.68945
0.69531
0.69922
0.69922
0.69922
0.70508
0.70508
0.70508
0.70898
0.74023
0.81445
0.9043
0.84961
0.63477
0.44922
0.43555
0.57422
0.68945
0.81445
0.97461
1.125
1.1641
1.0586
0.88867
0.75
0.68555
0.66406
0.6543
0.64453
0.64063
0.63477
0.62891
0.62891
0.625
0.61914
0.61523
0.61523
0.60938
0.60938
0.60547
0.59961
0.5957
0.5957
0.5957
0.60547
0.61523
0.625
0.64063
0.6543
0.66992
0.68945
0.70508
0.7207
0.73438
0.74414
0.75
0.75
0.74414
0.74023
0.73438
0.73438
0.73438
0.73438
0.73047
0.72461
0.7207
0.7207
0.7207
0.7207
0.7207
0.7207
0.7207
0.71484
0.71484
0.7207
0.7207
0.72461
0.72461
0.73047
0.72461
0.72461
0.72461
0.73047
0.73438
0.73438
0.73438
0.73047
0.73047
0.73047
0.72461
0.72461
0.73047
0.73438
0.74023
0.74414
0.76563
0.78516
0.79492
0.79883
0.77539
0.73047
0.69531
0.67969
0.67969
0.67969
0.67969
0.68555
0.69531
0.69922
0.70508
0.71484
0.71484
0.7207
0.7207
0.7207
0.7207
0.72461
0.73438
0.78906
0.88477
0.91992
0.75
0.53516
0.4707
0.55469
0.6543
0.74414
0.88477
1.0449
1.1387
1.0938
0.93945
0.78906
0.70508
0.67578
0.66992
0.66016
0.6543
0.65039
0.65039
0.64453
0.64453
0.64063
0.64063
0.63477
0.62891
0.62891
0.62891
0.625
0.61914
0.61914
0.61914
0.62891
0.64063
0.6543
0.66406
0.67969
0.69531
0.70508
0.7207
0.72461
0.73047
0.73438
0.74023
0.73438
0.73047
0.72461
0.72461
0.7207
0.71484
0.71484
0.70508
0.70508
0.69922
0.69922
0.69531
0.69531
0.69531
0.69531
0.69531
0.69922
0.69922
0.69922
0.69922
0.69922
0.69922
0.70508
0.70508
0.70508
0.70898
0.70898
0.70898
0.71484
0.71484
0.71484
0.71484
0.71484
0.71484
0.71484
0.71484
0.71484
0.7207
0.7207
0.7207
0.7207
0.73438
0.75
0.76563
0.7793
0.7793
0.75391
0.71484
0.67578
0.66016
0.66016
0.66016
0.66016
0.66992
0.67969
0.68555
0.68555
0.68945
0.69531
0.69531
0.69531
0.69922
0.69922
0.69922
0.7207
0.7793
0.88477
0.91016
0.70898
0.49414
0.44531
0.53906
0.65039
0.76563
0.91992
1.0801
1.1543
1.0801
0.91016
0.75977
0.68555
0.66016
0.65039
0.64063
0.64063
0.63477
0.62891
0.62891
0.625
0.625
0.61914
0.61914
0.61523
0.61523
0.60938
0.60547
0.59961
0.5957
0.5957
0.60547
0.61523
0.625
0.64063
0.6543
0.66992
0.67969
0.69922
0.71484
0.72461
0.73047
0.73438
0.73438
0.73438
0.72461
0.72461
0.7207
0.71484
0.71484
0.71484
0.70898
0.70898
0.70898
0.70898
0.70898
0.70898
0.70898
0.70898
0.70898
0.70898
0.70898
0.71484
0.71484
0.71484
0.7207
0.7207
0.7207
0.7207
0.7207
0.7207
0.7207
0.7207
0.72461
0.72461
0.72461
0.72461
0.7207
0.7207
0.7207
0.7207
0.72461
0.72461
0.72461
0.72461
0.73438
0.75391
0.77539
0.78516
0.78516
0.76563
0.73047
0.68945
0.67578
0.66992
0.67578
0.67578
0.67578
0.68555
0.69531
0.69922
0.70508
0.70508
0.70898
0.70898
0.70898
0.71484
0.7207
0.73047
0.7793
0.875
0.9043
0.73047
0.50586
0.44922
0.54492
0.66406
0.77539
0.9043
1.0586
1.1602
1.125
0.96875
0.80469
0.70508
0.66992
0.6543
0.65039
0.64453
0.64063
0.63477
0.62891
0.62891
0.62891
0.625
0.61914
0.61914
0.61523
0.60938
0.60547
0.60547
0.59961
0.59961
0.60547
0.61523
0.62891
0.64453
0.66016
0.67578
0.68945
0.70508
0.7207
0.72461
0.74023
0.74414
0.74414
0.74023
0.73438
0.73438
0.72461
0.72461
0.7207
0.7207
0.7207
0.71484
0.71484
0.71484
0.70898
0.70898
0.70508
0.70508
0.70898
0.70898
0.71484
0.71484
0.71484
0.71484
0.71484
0.7207
0.7207
0.72461
0.72461
0.72461
0.72461
0.72461
0.72461
0.72461
0.72461
0.72461
0.72461
0.72461
0.72461
0.72461
0.7207
0.72461
0.72461
0.72461
0.73047
0.74414
0.76563
0.78516
0.79492
0.7793
0.74414
0.69922
0.67578
0.66992
0.66992
0.66992
0.66992
0.67969
0.68555
0.68945
0.69531
0.69922
0.69922
0.69922
0.70508
0.70508
0.70508
0.71484
0.75
0.84961
0.92383
0.81445
0.58398
0.44922
0.49023
0.59961
0.69922
0.83984
1.0137
1.1289
1.1348
0.95508
0.78906
0.69531
0.66406
0.6543
0.65039
0.64453
0.64063
0.64063
0.63477
0.63477
0.62891
0.625
0.61914
0.61914
0.61523
0.60938
0.60938
0.60938
0.60547
0.60547
0.60938
0.61523
0.62891
0.64063
0.6543
0.66406
0.67578
0.69531
0.70508
0.7207
0.73047
0.73438
0.74023
0.73438
0.73047
0.72461
0.7207
0.71484
0.70898
0.70508
0.70508
0.70508
0.70508
0.70508
0.70508
0.70508
0.70508
0.70508
0.70508
0.70508
0.70508
0.70898
0.70898
0.70898
0.71484
0.71484
0.71484
0.71484
0.71484
0.71484
0.71484
0.71484
0.71484
0.71484
0.71484
0.71484
0.71484
0.7207
0.7207
0.72461
0.7207
0.7207
0.7207
0.72461
0.74414
0.76563
0.7793
0.78516
0.76953
0.73438
0.69531
0.67578
0.66992
0.66992
0.66992
0.66992
0.67969
0.68555
0.69531
0.69922
0.69922
0.70508
0.70508
0.70508
0.70508
0.70898
0.7207
0.75977
0.85938
0.91406
0.78516
0.54492
0.43555
0.50977
0.62891
0.73438
0.875
1.0391
1.1543
1.1641
0.99414
0.83008
0.7207
0.67578
0.66016
0.65039
0.65039
0.64063
0.64063
0.63477
0.62891
0.62891
0.62891
0.61914
0.61523
0.60938
0.60547
0.60547
0.59961
0.5957
0.5957
0.59961
0.60938
0.61914
0.63477
0.65039
0.66406
0.67578
0.68945
0.70898
0.72461
0.74023
0.74414
0.75
0.75
0.74414
0.74414
0.74023
0.73438
0.73438
0.73438
0.73438
0.73047
0.72461
0.72461
0.7207
0.71484
0.71484
0.71484
0.71484
0.7207
0.7207
0.72461
0.72461
0.72461
0.72461
0.72461
0.73047
0.73438
0.73438
0.73438
0.73438
0.73438
0.73438
0.73438
0.73438
0.74023
0.74023
0.74023
0.74023
0.74023
0.74023
0.74023
0.74023
0.74414
0.75977
0.7793
0.79883
0.80469
0.81055
0.76953
0.73047
0.69922
0.68945
0.68945
0.69531
0.69531
0.69922
0.70508
0.70508
0.71484
0.71484
0.7207
0.7207
0.72461
0.72461
0.73047
0.73438
0.75977
0.83984
0.93555
0.88477
0.66406
0.48438
0.46094
0.58008
0.66992
0.79492
0.95898
1.1035
1.1348
1.0137
0.85547
0.74023
0.68945
0.67969
0.66992
0.66016
0.6543
0.6543
0.65039
0.64453
0.64453
0.64063
0.63477
0.63477
0.62891
0.62891
0.62891
0.625
0.625
0.62891
0.63477
0.64063
0.6543
0.66406
0.67969
0.68945
0.70508
0.71484
0.72461
0.73047
0.74023
0.74414
0.75
0.74414
0.74414
0.74023
0.73438
0.72461
0.7207
0.7207
0.71484
0.71484
0.70898
0.70898
0.70508
0.70508
0.70898
0.70898
0.70898
0.70898
0.70898
0.71484
0.71484
0.71484
0.7207
0.72461
0.72461
0.72461
0.72461
0.73047
0.73047
0.73438
0.73438
0.73438
0.73047
0.73047
0.73047
0.73047
0.73438
0.73438
0.73438
0.73438
0.73438
0.73438
0.74414
0.76953
0.78516
0.79492
0.78906
0.76563
0.7207
0.68945
0.67578
0.67969
0.67969
0.67578
0.68555
0.68945
0.69531
0.69922
0.70508
0.70508
0.70898
0.70898
0.70898
0.71484
0.71484
0.74023
0.81445
0.91016
0.86523
0.64453
0.46484
0.43945
0.58008
0.68945
0.81055
0.96875
1.1152
1.1602
1.0586
0.88867
0.75
0.68945
0.66992
0.66016
0.6543
0.65039
0.64453
0.64063
0.64063
0.63477
0.62891
0.62891
0.625
0.61914
0.61523
0.61523
0.61523
0.60938
0.60938
0.60938
0.61523
0.62891
0.64063
0.6543
0.66406
0.67969
0.69531
0.70898
0.7207
0.73438
0.74414
0.75
0.74414
0.74023
0.74023
0.73438
0.73438
0.73047
0.72461
0.7207
0.7207
0.7207
0.71484
0.71484
0.71484
0.71484
0.71484
0.7207
0.7207
0.7207
0.7207
0.7207
0.72461
0.73047
0.73047
0.73047
0.73047
0.73438
0.73438
0.73438
0.73438
0.73438
0.73047
0.72461
0.72461
0.73047
0.73438
0.73047
0.73047
0.73438
0.73047
0.73047
0.74023
0.75391
0.77539
0.78906
0.79492
0.7793
0.74414
0.71484
0.68555
0.67969
0.67969
0.68555
0.68555
0.69531
0.69922
0.70508
0.70898
0.71484
0.7207
0.7207
0.72461
0.72461
0.72461
0.73047
0.76953
0.85938
0.91992
0.79883
0.57031
0.46094
0.5293
0.64453
0.74414
0.86914
1.0254
1.1445
1.1641
1.0254
0.85547
0.73438
0.68945
0.67578
0.66992
0.66016
0.6543
0.65039
0.65039
0.64453
0.64063
0.64063
0.63477
0.62891
0.62891
0.61914
0.61523
0.61523
0.61523
0.61523
0.61914
0.63477
0.65039
0.66016
0.67578
0.68945
0.69922
0.71484
0.72461
0.73438
0.74023
0.74414
0.74414
0.74023
0.73438
0.72461
0.72461
0.7207
0.71484
0.70898
0.70508
0.70508
0.70508
0.69922
0.69922
0.69922
0.69922
0.69531
0.69531
0.69531
0.69922
0.69922
0.70508
0.70508
0.70508
0.70508
0.70508
0.70508
0.70508
0.70508
0.70508
0.70898
0.70898
0.71484
0.70898
0.70898
0.70898
0.71484
0.71484
0.71484
0.71484
0.71484
0.71484
0.73047
0.74414
0.76563
0.7793
0.78516
0.75977
0.7207
0.67969
0.66992
0.66992
0.66992
0.66992
0.66992
0.67969
0.68555
0.68555
0.69531
0.69922
0.69922
0.69922
0.69922
0.69922
0.69922
0.71484
0.76953
0.87891
0.91016
0.74023
0.51563
0.43945
0.51953
0.62891
0.74023
0.88867
1.0488
1.1348
1.0742
0.91406
0.76563
0.68945
0.66406
0.6543
0.64453
0.64063
0.63477
0.62891
0.62891
0.625
0.61914
0.61523
0.61523
0.61523
0.61523
0.60938
0.60938
0.60547
0.60547
0.60938
0.61523
0.61914
0.63477
0.65039
0.6543
0.66992
0.67969
0.69531
0.70508
0.7207
0.72461
0.73438
0.73438
0.73047
0.72461
0.7207
0.71484
0.70898
0.70898
0.70898
0.70508
0.70508
0.70508
0.70508
0.70508
0.70508
0.70508
0.70508
0.70898
0.70898
0.70898
0.70898
0.71484
0.71484
0.71484
0.7207
0.7207
0.7207
0.7207
0.7207
0.7207
0.7207
0.7207
0.72461
0.72461
0.72461
0.72461
0.72461
0.72461
0.72461
0.72461
0.72461
0.74023
0.75977
0.77539
0.78516
0.7793
0.75
0.70898
0.67969
0.66992
0.66992
0.66992
0.66992
0.67578
0.68555
0.68945
0.69922
0.69922
0.70508
0.70898
0.70898
0.70898
0.70898
0.71484
0.73438
0.79883
0.88867
0.90039
0.64063
0.46094
0.43555
0.58008
0.69531
0.81055
0.95508
1.0996
1.1641
1.084
0.91406
0.76563
0.68945
0.66406
0.6543
0.64453
0.64063
0.64063
0.63477
0.63477
0.63477
0.62891
0.625
0.61914
0.61523
0.61523
0.60938
0.60547
0.60547
0.60547
0.60938
0.61523
0.625
0.64063
0.6543
0.66406
0.67969
0.69531
0.70898
0.72461
0.73438
0.74023
0.74414
0.74414
0.74023
0.73438
0.73438
0.73438
0.73047
0.7207
0.71484
0.71484
0.70898
0.70898
0.70508
0.70508
0.70508
0.70508
0.70508
0.70508
0.70508
0.70508
0.70898
0.70898
0.70898
0.70898
0.70898
0.71484
0.71484
0.71484
0.71484
0.7207
0.7207
0.7207
0.7207
0.72461
0.72461
0.72461
0.72461
0.72461
0.72461
0.72461
0.72461
0.73438
0.75391
0.77539
0.78906
0.79492
0.77539
0.73438
0.69531
0.67578
0.66992
0.66992
0.66992
0.67578
0.67969
0.68555
0.68555
0.69531
0.69922
0.69922
0.69922
0.70508
0.70508
0.70898
0.71484
0.76953
0.875
0.91406
0.76563
0.53906
0.44531
0.50977
0.61523
0.7207
0.86523
1.0293
1.1191
1.0645
0.91992
0.77539
0.68945
0.66992
0.6543
0.65039
0.64453
0.64063
0.64063
0.64063
0.64063
0.64063
0.63477
0.63477
0.62891
0.62891
0.62891
0.625
0.61914
0.61914
0.625
0.62891
0.64063
0.65039
0.66406
0.67969
0.68945
0.70508
0.71484
0.72461
0.73438
0.74023
0.74414
0.74414
0.73438
0.73047
0.72461
0.7207
0.71484
0.71484
0.70898
0.70898
0.70508
0.70898
0.70898
0.70898
0.70508
0.70508
0.70508
0.70508
0.70898
0.71484
0.71484
0.71484
0.71484
0.71484
0.71484
0.7207
0.7207
0.7207
0.7207
0.7207
0.7207
0.7207
0.7207
0.7207
0.7207
0.7207
0.7207
0.72461
0.72461
0.72461
0.72461
0.72461
0.73438
0.74414
0.76563
0.7793
0.78906
0.77539
0.74023
0.69922
0.67578
0.67578
0.67578
0.67578
0.67578
0.68555
0.68945
0.69531
0.69531
0.69922
0.69922
0.70508
0.70508
0.70508
0.70898
0.71484
0.74414
0.83984
0.91016
0.79883
0.56055
0.42969
0.49023
0.61914
0.73047
0.85938
1.0254
1.1445
1.1699
1.0254
0.85547
0.73047
0.67969
0.66016
0.6543
0.64453
0.64063
0.63477
0.63477
0.62891
0.62891
0.62891
0.61914
0.61523
0.60938
0.60938
0.60547
0.60547
0.60547
0.60547
0.60547
0.61523
0.625
0.64453
0.66016
0.66992
0.67969
0.69531
0.70898
0.7207
0.73047
0.74023
0.74023
0.74023
0.73438
0.73047
0.72461
0.7207
0.71484
0.71484
0.70898
0.70508
0.70508
0.70508
0.70508
0.69922
0.69922
0.69922
0.69922
0.69922
0.69922
0.70508
0.70508
0.70898
0.71484
0.71484
0.71484
0.71484
0.71484
0.7207
0.7207
0.7207
0.7207
0.7207
0.7207
0.7207
0.7207
0.7207
0.7207
0.72461
0.72461
0.72461
0.72461
0.72461
0.74023
0.75977
0.7793
0.78516
0.78906
0.75977
0.7207
0.68945
0.67578
0.67578
0.67578
0.67578
0.67969
0.68945
0.69531
0.69922
0.69922
0.70508
0.70898
0.71484
0.71484
0.71484
0.71484
0.73047
0.78906
0.88867
0.91992
0.70898
0.5
0.44922
0.55078
0.6543
0.75391
0.90039
1.0547
1.1348
1.0801
0.92969
0.78516
0.69922
0.67578
0.66406
0.6543
0.6543
0.6543
0.65039
0.65039
0.65039
0.64453
0.64063
0.64063
0.63477
0.63477
0.63477
0.63477
0.63477
0.63477
0.64063
0.65039
0.66016
0.67578
0.68555
0.69531
0.70508
0.70898
0.7207
0.73047
0.74023
0.74414
0.75
0.74414
0.73438
0.73047
0.72461
0.7207
0.7207
0.71484
0.71484
0.70898
0.70508
0.70508
0.69922
0.69922
0.69531
0.69531
0.69531
0.69922
0.69922
0.70508
0.70508
0.70508
0.70898
0.70898
0.70898
0.71484
0.7207
0.7207
0.7207
0.7207
0.7207
0.72461
0.72461
0.72461
0.72461
0.72461
0.72461
0.72461
0.72461
0.72461
0.72461
0.72461
0.73438
0.75391
0.77539
0.78516
0.79492
0.7793
0.74023
0.70508
0.67969
0.67578
0.67578
0.67578
0.67578
0.68555
0.69531
0.69922
0.69922
0.70508
0.70508
0.71484
0.71484
0.7207
0.7207
0.7207
0.75391
0.84961
0.91992
0.81055
0.57422
0.43945
0.49023
0.61523
0.72461
0.85938
1.0254
1.1445
1.1602
1.0039
0.83984
0.72461
0.67969
0.66406
0.6543
0.65039
0.64453
0.64063
0.64063
0.64063
0.64063
0.63477
0.62891
0.625
0.61914
0.61523
0.61523
0.60938
0.60938
0.60938
0.61523
0.625
0.63477
0.65039
0.6543
0.66992
0.68555
0.69922
0.70898
0.7207
0.73047
0.73438
0.73438
0.73047
0.72461
0.7207
0.71484
0.71484
0.70508
0.69922
0.69922
0.69531
0.69531
0.69531
0.69531
0.69922
0.69531
0.69531
0.69531
0.69531
0.69531
0.69922
0.69922
0.70508
0.70508
0.70508
0.70508
0.70898
0.70898
0.70898
0.71484
0.71484
0.71484
0.71484
0.71484
0.71484
0.70898
0.70898
0.71484
0.71484
0.71484
0.71484
0.71484
0.7207
0.74414
0.76563
0.7793
0.78516
0.75977
0.72461
0.68945
0.66992
0.66406
0.66406
0.66406
0.66992
0.67969
0.68555
0.68555
0.68945
0.69531
0.69922
0.69922
0.69922
0.69922
0.70508
0.71484
0.75977
0.85547
0.88867
0.74023
0.50977
0.43555
0.51953
0.63477
0.74023
0.875
1.0293
1.1348
1.1387
0.96875
0.81055
0.70508
0.66406
0.65039
0.64063
0.63477
0.63477
0.62891
0.62891
0.62891
0.625
0.61914
0.61523
0.61523
0.61523
0.60938
0.60938
0.60938
0.60938
0.61523
0.61914
0.63477
0.64453
0.66016
0.67578
0.68555
0.69922
0.70898
0.7207
0.72461
0.73438
0.74023
0.74023
0.73438
0.72461
0.7207
0.71484
0.71484
0.70898
0.70508
0.70508
0.69922
0.69531
0.69531
0.69531
0.69531
0.69531
0.69531
0.69531
0.69922
0.69922
0.69922
0.69922
0.69922
0.69922
0.70508
0.70898
0.71484
0.71484
0.71484
0.71484
0.71484
0.7207
0.7207
0.7207
0.7207
0.7207
0.7207
0.7207
0.72461
0.72461
0.72461
0.72461
0.73047
0.74023
0.75977
0.7793
0.78906
0.7793
0.74414
0.70898
0.67969
0.66992
0.66992
0.66992
0.66992
0.67969
0.68555
0.69531
0.69922
0.70508
0.70508
0.70508
0.70898
0.71484
0.71484
0.71484
0.74414
0.82031
0.91016
0.84961
0.61914
0.44922
0.43945
0.58398
0.68945
0.82031
0.98438
1.125
1.1484
1.0254
0.85547
0.73047
0.67969
0.66406
0.65039
0.64453
0.64453
0.64063
0.63477
0.63477
0.63477
0.63477
0.62891
0.625
0.61914
0.61523
0.61523
0.60938
0.60938
0.60938
0.61523
0.61914
0.63477
0.64453
0.6543
0.66992
0.68555
0.69922
0.71484
0.72461
0.73438
0.74023
0.74023
0.74023
0.73438
0.73438
0.72461
0.7207
0.71484
0.71484
0.70898
0.70508
0.70508
0.70508
0.70508
0.70508
0.70508
0.70508
0.70508
0.70508
0.70508
0.70898
0.70898
0.70898
0.71484
0.71484
0.71484
0.71484
0.71484
0.71484
0.7207
0.71484
0.71484
0.7207
0.7207
0.7207
0.7207
0.7207
0.7207
0.7207
0.7207
0.72461
0.72461
0.72461
0.73438
0.75
0.76953
0.78516
0.78906
0.77539
0.74023
0.69922
0.67969
0.67578
0.67578
0.67578
0.67578
0.68555
0.68945
0.69531
0.69922
0.69922
0.70508
0.70898
0.71484
0.71484
0.70898
0.71484
0.75391
0.84375
0.90039
0.7793
0.53906
0.42969
0.50586
0.62891
0.74414
0.86914
1.0254
1.1445
1.1602
1.0195
0.84961
0.73047
0.67578
0.66016
0.65039
0.64063
0.64063
0.63477
0.63477
0.63477
0.62891
0.625
0.61914
0.61914
0.61523
0.61523
0.60938
0.60547
0.60547
0.60547
0.60938
0.61523
0.62891
0.64453
0.6543
0.66992
0.68555
0.69922
0.71484
0.72461
0.73438
0.74023
0.74414
0.74414
0.74023
0.73438
0.73438
0.72461
0.7207
0.7207
0.7207
0.7207
0.71484
0.71484
0.70898
0.70508
0.70508
0.70508
0.70508
0.70508
0.70508
0.70508
0.70508
0.70898
0.71484
0.71484
0.71484
0.7207
0.7207
0.7207
0.7207
0.72461
0.7207
0.7207
0.7207
0.72461
0.72461
0.72461
0.72461
0.72461
0.72461
0.73047
0.74414
0.76563
0.78516
0.79492
0.79492
0.76953
0.73438
0.69922
0.67578
0.66406
0.66016
0.66992
0.67578
0.67969
0.68555
0.68945
0.69531
0.69922
0.70508
0.70508
0.70508
0.70508
0.71484
0.74414
0.83008
0.91992
0.85547
0.62891
0.46094
0.44531
0.57031
0.66992
0.79883
0.96484
1.0996
1.125
1
0.83984
0.73047
0.67969
0.66992
0.66016
0.6543
0.65039
0.64453
0.64063
0.64063
0.64063
0.63477
0.63477
0.62891
0.62891
0.62891
0.625
0.61914
0.61914
0.61914
0.61914
0.62891
0.64063
0.6543
0.66992
0.67578
0.68945
0.69922
0.70898
0.7207
0.73438
0.74023
0.74414
0.74414
0.73438
0.72461
0.7207
0.7207
0.71484
0.71484
0.70898
0.70508
0.70508
0.70508
0.70508
0.70508
0.70508
0.70508
0.70508
0.70508
0.70508
0.70508
0.70898
0.71484
0.71484
0.71484
0.71484
0.7207
0.7207
0.7207
0.7207
0.7207
0.7207
0.7207
0.7207
0.7207
0.7207
0.72461
0.72461
0.72461
0.72461
0.72461
0.72461
0.72461
0.72461
0.73438
0.75391
0.76953
0.78516
0.78906
0.76563
0.73047
0.69531
0.67578
0.67578
0.66992
0.66992
0.67578
0.68555
0.69531
0.69922
0.70508
0.70508
0.70898
0.71484
0.7207
0.7207
0.7207
0.73047
0.7793
0.875
0.9043
0.74023
0.50977
0.43555
0.52539
0.65039
0.75977
0.9043
1.0586
1.1641
1.1289
0.98047
0.81445
0.71484
0.67969
0.66016
0.6543
0.65039
0.64063
0.63477
0.63477
0.62891
0.62891
0.625
0.61914
0.61523
0.60938
0.60547
0.60547
0.60547
0.59961
0.59961
0.60547
0.61523
0.62891
0.64063
0.6543
0.66406
0.67969
0.69531
0.71484
0.72461
0.73438
0.74023
0.74023
0.74023
0.74023
0.73438
0.73047
0.72461
0.72461
0.7207
0.7207
0.71484
0.71484
0.71484
0.70898
0.70508
0.70508
0.70508
0.70508
0.70508
0.70508
0.70508
0.71484
0.71484
0.71484
0.7207
0.7207
0.72461
0.72461
0.72461
0.72461
0.72461
0.72461
0.73047
0.73438
0.73438
0.73438
0.73438
0.73047
0.73047
0.73047
0.74023
0.75391
0.77539
0.78906
0.79492
0.7793
0.74414
0.70508
0.67969
0.67578
0.67578
0.67969
0.67969
0.68555
0.69531
0.69922
0.69922
0.70508
0.70508
0.70898
0.71484
0.71484
0.70898
0.71484
0.74414
0.83008
0.91406
0.85547
0.62891
0.46094
0.43945
0.57422
0.66992
0.79492
0.95898
1.0938
1.125
1.0039
0.84375
0.73047
0.67969
0.66992
0.66016
0.6543
0.6543
0.65039
0.65039
0.64453
0.64063
0.64063
0.63477
0.62891
0.62891
0.625
0.61914
0.61914
0.61914
0.61914
0.625
0.63477
0.65039
0.66016
0.67578
0.68555
0.69922
0.70508
0.7207
0.72461
0.73438
0.74023
0.74414
0.74023
0.73438
0.72461
0.7207
0.71484
0.71484
0.70898
0.70508
0.69922
0.69922
0.69922
0.69922
0.69531
0.69531
0.69531
0.69531
0.69531
0.69531
0.69922
0.69922
0.70508
0.70508
0.70508
0.70898
0.71484
0.71484
0.71484
0.71484
0.71484
0.71484
0.71484
0.71484
0.71484
0.7207
0.7207
0.7207
0.7207
0.7207
0.7207
0.72461
0.74023
0.75977
0.7793
0.78516
0.77539
0.74023
0.69531
0.66992
0.66406
0.66406
0.66016
0.66016
0.67578
0.67969
0.68555
0.68945
0.69531
0.69922
0.69922
0.69922
0.69922
0.70508
0.70508
0.73438
0.82031
0.9043
0.83398
0.60547
0.43945
0.42969
0.58398
0.69922
0.82422
0.98438
1.125
1.1543
1.0352
0.86523
0.73438
0.67578
0.66016
0.65039
0.64063
0.63477
0.63477
0.62891
0.62891
0.62891
0.625
0.61914
0.61523
0.60938
0.60547
0.60547
0.59961
0.59961
0.59961
0.59961
0.60938
0.61914
0.63477
0.65039
0.66406
0.67578
0.68945
0.70898
0.7207
0.73438
0.74023
0.74414
0.74414
0.74023
0.73438
0.72461
0.72461
0.7207
0.7207
0.7207
0.71484
0.71484
0.70898
0.70898
0.71484
0.71484
0.71484
0.71484
0.71484
0.7207
0.7207
0.7207
0.72461
0.72461
0.72461
0.72461
0.72461
0.73047
0.73438
0.73438
0.73438
0.73047
0.72461
0.72461
0.72461
0.72461
0.72461
0.73047
0.73047
0.73047
0.72461
0.72461
0.73438
0.75977
0.7793
0.78906
0.79883
0.78516
0.74414
0.70508
0.67969
0.67969
0.67969
0.67969
0.67969
0.68555
0.69531
0.69922
0.69922
0.69922
0.70508
0.70508
0.70898
0.71484
0.71484
0.7207
0.75391
0.85547
0.93555
0.83008
0.59961
0.45508
0.44922
0.58984
0.68945
0.82422
0.99023
1.1094
1.1191
0.96875
0.81445
0.70898
0.67578
0.66016
0.6543
0.65039
0.64063
0.64063
0.64063
0.63477
0.63477
0.62891
0.62891
0.625
0.61914
0.61914
0.61523
0.61523
0.61523
0.61523
0.61914
0.62891
0.64063
0.65039
0.66016
0.67578
0.68555
0.69531
0.70898
0.7207
0.73047
0.73438
0.73438
0.73047
0.72461
0.7207
0.71484
0.71484
0.70898
0.70508
0.70508
0.69922
0.69922
0.69922
0.69922
0.69922
0.69922
0.69922
0.69922
0.70508
0.70508
0.70508
0.70508
0.70898
0.70898
0.71484
0.71484
0.71484
0.71484
0.7207
0.7207
0.7207
0.7207
0.7207
0.7207
0.72461
0.72461
0.72461
0.72461
0.72461
0.72461
0.72461
0.72461
0.73047
0.74023
0.75977
0.7793
0.78906
0.78516
0.75977
0.7207
0.68945
0.67578
0.67578
0.67578
0.67578
0.67578
0.68555
0.68945
0.69531
0.69922
0.70508
0.70508
0.70898
0.71484
0.71484
0.71484
0.73047
0.78906
0.88867
0.91406
0.69922
0.48047
0.43555
0.54492
0.66992
0.78516
0.93945
1.0938
1.1699
1.1035
0.93945
0.78906
0.70508
0.67578
0.66406
0.66016
0.6543
0.65039
0.64453
0.64063
0.63477
0.62891
0.62891
0.625
0.625
0.61914
0.61523
0.60938
0.60938
0.60938
0.60938
0.61523
0.625
0.63477
0.65039
0.66406
0.67969
0.69531
0.70898
0.72461
0.73438
0.74414
0.75
0.75
0.74414
0.74023
0.73438
0.73438
0.73047
0.72461
0.7207
0.7207
0.7207
0.71484
0.71484
0.71484
0.71484
0.71484
0.7207
0.71484
0.71484
0.7207
0.7207
0.72461
0.72461
0.73047
0.73047
0.73438
0.73438
0.73438
0.73438
0.73438
0.73438
0.73438
0.74023
0.74023
0.73438
0.73438
0.73438
0.73438
0.73438
0.73438
0.73438
0.73438
0.75
0.77539
0.78906
0.79492
0.79883
0.77539
0.73438
0.69922
0.68555
0.68555
0.68555
0.68945
0.69531
0.69922
0.70508
0.70898
0.71484
0.71484
0.71484
0.71484
0.7207
0.7207
0.72461
0.74023
0.79492
0.90039
0.92969
0.73047
0.50977
0.46094
0.55078
0.65039
0.75391
0.90039
1.0586
1.1348
1.0742
0.91992
0.7793
0.70508
0.67969
0.67578
0.66992
0.66016
0.6543
0.6543
0.6543
0.6543
0.64453
0.64063
0.64063
0.63477
0.63477
0.62891
0.625
0.61914
0.61914
0.625
0.63477
0.64453
0.6543
0.66992
0.68555
0.69531
0.70508
0.71484
0.7207
0.73438
0.74023
0.74023
0.74023
0.73438
0.73047
0.72461
0.7207
0.71484
0.70898
0.70508
0.70508
0.69922
0.69531
0.69531
0.69531
0.69531
0.69531
0.69531
0.69531
0.69531
0.69922
0.69922
0.69922
0.70508
0.70508
0.70898
0.70898
0.71484
0.71484
0.71484
0.71484
0.71484
0.71484
0.71484
0.71484
0.71484
0.71484
0.71484
0.71484
0.71484
0.71484
0.71484
0.7207
0.7207
0.73438
0.75391
0.77539
0.78516
0.7793
0.75391
0.71484
0.67969
0.66992
0.66992
0.66992
0.66992
0.67578
0.68555
0.68945
0.69531
0.69922
0.69922
0.70508
0.70508
0.70508
0.70508
0.70898
0.73047
0.79492
0.88867
0.91016
0.68555
0.47461
0.43555
0.54492
0.66406
0.7793
0.93555
1.0898
1.1543
1.0742
0.91016
0.75977
0.68555
0.66406
0.6543
0.64453
0.64063
0.63477
0.63477
0.62891
0.62891
0.625
0.61914
0.61523
0.61523
0.60938
0.60547
0.60547
0.59961
0.59961
0.60547
0.60938
0.61914
0.63477
0.65039
0.66016
0.67578
0.68555
0.69922
0.71484
0.72461
0.73438
0.74023
0.74414
0.73438
0.73047
0.72461
0.72461
0.7207
0.71484
0.71484
0.71484
0.71484
0.71484
0.70898
0.70898
0.70898
0.70898
0.70898
0.70898
0.70898
0.70898
0.71484
0.71484
0.7207
0.7207
0.72461
0.72461
0.72461
0.72461
0.72461
0.72461
0.72461
0.73047
0.73438
0.73438
0.73047
0.73047
0.73438
0.73438
0.73438
0.73438
0.73438
0.73438
0.74023
0.75391
0.77539
0.78906
0.79492
0.78516
0.75
0.71484
0.68945
0.68555
0.68555
0.67969
0.67969
0.68945
0.69531
0.69922
0.69922
0.70508
0.70508
0.70898
0.70898
0.70898
0.70898
0.71484
0.75
0.83984
0.91406
0.81445
0.58398
0.44531
0.43945
0.58984
0.68945
0.81445
0.98047
1.1035
1.125
0.99023
0.82422
0.71484
0.67578
0.66016
0.6543
0.65039
0.64453
0.64063
0.64063
0.63477
0.62891
0.62891
0.625
0.61914
0.61523
0.61523
0.61523
0.60938
0.60938
0.60938
0.61523
0.61914
0.63477
0.65039
0.66406
0.67578
0.68555
0.69531
0.70508
0.71484
0.7207
0.72461
0.73047
0.72461
0.7207
0.7207
0.71484
0.71484
0.70508
0.69922
0.69922
0.69531
0.69531
0.69531
0.69531
0.69531
0.69531
0.69531
0.69531
0.69531
0.69531
0.69531
0.69531
0.69922
0.69922
0.69922
0.69922
0.70508
0.70508
0.70508
0.70898
0.70898
0.70898
0.70898
0.70898
0.71484
0.71484
0.70898
0.70898
0.71484
0.71484
0.71484
0.71484
0.71484
0.7207
0.74023
0.75977
0.7793
0.7793
0.75977
0.7207
0.68555
0.66406
0.66016
0.66016
0.66016
0.66406
0.67578
0.68555
0.68945
0.69531
0.69922
0.69922
0.70508
0.70508
0.70508
0.70508
0.71484
0.75391
0.85547
0.9043
0.76563
0.5293
0.42969
0.50586
0.625
0.74023
0.87891
1.0449
1.1484
1.1543
0.97461
0.80469
0.70508
0.66406
0.6543
0.64453
0.64063
0.64063
0.63477
0.62891
0.62891
0.62891
0.625
0.61914
0.61523
0.61523
0.60938
0.60547
0.5957
0.5957
0.59961
0.60547
0.60938
0.61914
0.63477
0.65039
0.66406
0.67578
0.68945
0.70508
0.7207
0.72461
0.73438
0.74023
0.73438
0.73047
0.7207
0.7207
0.7207
0.71484
0.71484
0.71484
0.71484
0.71484
0.71484
0.71484
0.71484
0.71484
0.71484
0.71484
0.71484
0.7207
0.7207
0.7207
0.7207
0.72461
0.73047
0.73047
0.73047
0.73047
0.73047
0.73047
0.72461
0.72461
0.73047
0.73047
0.73438
0.73438
0.73438
0.73438
0.73438
0.73438
0.73438
0.73438
0.74414
0.76563
0.7793
0.79492
0.79492
0.7793
0.74023
0.70508
0.68555
0.67969
0.67969
0.68555
0.68945
0.69531
0.69922
0.70508
0.70508
0.71484
0.71484
0.71484
0.71484
0.71484
0.71484
0.72461
0.76953
0.86914
0.92383
0.79492
0.55469
0.43945
0.49414
0.60547
0.70508
0.84961
1.0098
1.1152
1.1191
0.95898
0.80469
0.70898
0.67578
0.66406
0.6543
0.65039
0.65039
0.64063
0.63477
0.63477
0.62891
0.62891
0.625
0.61914
0.61914
0.61914
0.61523
0.61523
0.61523
0.61523
0.625
0.62891
0.64063
0.6543
0.66992
0.67969
0.68945
0.69922
0.71484
0.7207
0.73047
0.73438
0.74023
0.73438
0.72461
0.7207
0.71484
0.71484
0.70898
0.70508
0.70508
0.69922
0.69922
0.69922
0.69922
0.69922
0.69922
0.69922
0.69922
0.70508
0.70508
0.70898
0.71484
0.7207
0.7207
0.72461
0.72461
0.73047
0.73438
0.73438
0.73438
0.73438
0.73438
0.73438
0.73438
0.73438
0.74023
0.74023
0.74023
0.74023
0.74023
0.74023
0.74414
0.76563
0.78516
0.79883
0.80469
0.78906
0.75977
0.7207
0.69922
0.68945
0.68945
0.68945
0.68945
0.69922
0.70508
0.71484
0.7207
0.7207
0.72461
0.72461
0.73047
0.73438
0.73438
0.74023
0.76563
0.84375
0.92969
0.85547
0.625
0.46094
0.44922
0.59961
0.71484
0.84375
1.0039
1.1484
1.1738
1.0449
0.86914
0.74414
0.68945
0.67578
0.66406
0.6543
0.6543
0.65039
0.65039
0.64453
0.64063
0.64063
0.63477
0.62891
0.61914
0.61914
0.61523
0.60938
0.60938
0.60938
0.60938
0.61914
0.62891
0.64453
0.66016
0.67578
0.68555
0.69922
0.70898
0.7207
0.73438
0.74023
0.74414
0.74023
0.73438
0.73047
0.72461
0.7207
0.71484
0.71484
0.70898
0.70508
0.70508
0.70508
0.70508
0.70508
0.70508
0.70508
0.70508
0.70508
0.70508
0.70508
0.70898
0.71484
0.71484
0.71484
0.71484
0.7207
0.7207
0.7207
0.7207
0.7207
0.7207
0.7207
0.7207
0.72461
0.72461
0.72461
0.72461
0.72461
0.72461
0.72461
0.73438
0.75
0.76953
0.78516
0.78906
0.76953
0.73438
0.69922
0.67969
0.67578
0.67578
0.67578
0.67969
0.68945
0.69531
0.69922
0.70508
0.70898
0.71484
0.71484
0.7207
0.71484
0.71484
0.7207
0.75977
0.85547
0.91016
0.78516
0.55078
0.43945
0.51563
0.63477
0.73438
0.86523
1.0254
1.1387
1.1543
1.0098
0.83984
0.72461
0.67969
0.66992
0.66016
0.6543
0.65039
0.65039
0.64453
0.64063
0.64063
0.63477
0.62891
0.62891
0.61914
0.61523
0.61523
0.60938
0.60938
0.60938
0.61523
0.62891
0.64063
0.6543
0.66992
0.68945
0.69922
0.71484
0.72461
0.73438
0.74023
0.74414
0.74414
0.74023
0.73438
0.73047
0.72461
0.7207
0.7207
0.71484
0.71484
0.71484
0.70898
0.70508
0.70508
0.69922
0.69922
0.69922
0.69922
0.69922
0.69922
0.69922
0.69922
0.69922
0.70508
0.70508
0.70898
0.71484
0.71484
0.71484
0.70898
0.70898
0.71484
0.71484
0.71484
0.71484
0.71484
0.71484
0.71484
0.71484
0.71484
0.71484
0.72461
0.74023
0.75977
0.7793
0.78516
0.75977
0.7207
0.68555
0.66016
0.6543
0.6543
0.66016
0.66406
0.67578
0.67969
0.67969
0.68555
0.68555
0.69531
0.69922
0.69922
0.69922
0.69922
0.70508
0.75391
0.85547
0.9043
0.77539
0.54492
0.43945
0.5
0.61523
0.72461
0.86523
1.0293
1.1348
1.0938
0.93945
0.7793
0.68945
0.66406
0.6543
0.64063
0.63477
0.63477
0.63477
0.62891
0.62891
0.62891
0.625
0.61914
0.61523
0.61523
0.60938
0.60938
0.60938
0.60547
0.60547
0.60938
0.61914
0.62891
0.64453
0.6543
0.66992
0.67969
0.68945
0.70508
0.71484
0.72461
0.73047
0.73438
0.73047
0.7207
0.7207
0.71484
0.70898
0.70508
0.69922
0.69922
0.69922
0.69922
0.69922
0.69922
0.69922
0.69922
0.70508
0.70508
0.70508
0.70898
0.70898
0.70898
0.70898
0.71484
0.71484
0.71484
0.71484
0.7207
0.7207
0.7207
0.7207
0.7207
0.7207
0.7207
0.7207
0.7207
0.7207
0.7207
0.7207
0.72461
0.72461
0.73438
0.75391
0.77539
0.78516
0.78906
0.76953
0.73438
0.69531
0.67578
0.66992
0.66992
0.66992
0.66992
0.68555
0.69531
0.69922
0.69922
0.70508
0.70508
0.70898
0.70898
0.71484
0.71484
0.7207
0.75391
0.84375
0.9043
0.7793
0.53906
0.42969
0.50586
0.62891
0.74414
0.87891
1.0352
1.1484
1.1641
1.0137
0.84375
0.72461
0.67969
0.66406
0.6543
0.65039
0.64453
0.64063
0.63477
0.64063
0.64063
0.63477
0.63477
0.62891
0.61914
0.61523
0.61523
0.60938
0.60938
0.60938
0.60938
0.61914
0.62891
0.64453
0.66406
0.67578
0.68945
0.70508
0.7207
0.73438
0.74023
0.74414
0.75
0.74414
0.74023
0.74023
0.73438
0.73438
0.73047
0.73047
0.73047
0.72461
0.72461
0.7207
0.71484
0.71484
0.71484
0.71484
0.71484
0.71484
0.71484
0.7207
0.7207
0.7207
0.72461
0.72461
0.72461
0.72461
0.73047
0.73047
0.73438
0.73438
0.73438
0.73438
0.73438
0.73438
0.73438
0.73438
0.73438
0.73438
0.73438
0.73438
0.73438
0.74023
0.75391
0.77539
0.78906
0.79492
0.7793
0.74414
0.70508
0.67969
0.67578
0.67578
0.67969
0.67969
0.68555
0.69531
0.69531
0.69922
0.69922
0.70508
0.70508
0.70508
0.70508
0.70508
0.71484
0.74414
0.84375
0.92969
0.84375
0.61523
0.45508
0.44531
0.58008
0.68555
0.82031
0.98438
1.1094
1.125
0.98047
0.82031
0.7207
0.68555
0.67578
0.66406
0.66016
0.6543
0.65039
0.65039
0.64453
0.64063
0.64063
0.63477
0.62891
0.62891
0.625
0.61914
0.61914
0.61914
0.61914
0.625
0.63477
0.64453
0.6543
0.66992
0.67969
0.69531
0.70508
0.71484
0.72461
0.73047
0.73438
0.74023
0.74023
0.73438
0.72461
0.7207
0.71484
0.71484
0.70898
0.70508
0.70508
0.70508
0.69922
0.69922
0.69922
0.69922
0.69922
0.69922
0.70508
0.70508
0.70508
0.70508
0.70898
0.70898
0.71484
0.71484
0.71484
0.7207
0.7207
0.7207
0.7207
0.7207
0.7207
0.72461
0.72461
0.72461
0.72461
0.72461
0.72461
0.72461
0.72461
0.72461
0.72461
0.73438
0.75
0.76953
0.78516
0.78906
0.76953
0.73438
0.69922
0.67578
0.67578
0.67578
0.67578
0.67969
0.68555
0.69531
0.69922
0.69922
0.70508
0.70898
0.71484
0.71484
0.71484
0.71484
0.7207
0.76953
0.86523
0.91016
0.76563
0.52539
0.43555
0.51563
0.63477
0.75
0.88867
1.0488
1.1543
1.1641
0.99023
0.82422
0.71484
0.67969
0.66406
0.6543
0.65039
0.65039
0.64453
0.64063
0.63477
0.63477
0.62891
0.62891
0.625
0.61914
0.61523
0.60938
0.60938
0.60938
0.60938
0.60938
0.61523
0.62891
0.64063
0.6543
0.66992
0.68555
0.69922
0.70898
0.7207
0.73047
0.73438
0.74023
0.74023
0.73438
0.73047
0.72461
0.72461
0.7207
0.7207
0.71484
0.71484
0.70898
0.70898
0.70898
0.70508
0.70508
0.70508
0.70508
0.70508
0.70508
0.70508
0.71484
0.71484
0.7207
0.71484
0.7207
0.7207
0.7207
0.72461
0.72461
0.72461
0.73047
0.72461
0.72461
0.72461
0.72461
0.72461
0.72461
0.72461
0.72461
0.72461
0.72461
0.73047
0.74023
0.75977
0.7793
0.78906
0.78906
0.76563
0.73047
0.69531
0.67969
0.67969
0.67969
0.67969
0.68555
0.69531
0.69922
0.70508
0.70508
0.70898
0.71484
0.71484
0.71484
0.7207
0.7207
0.73438
0.79492
0.88867
0.91992
0.73047
0.50977
0.45508
0.54492
0.64453
0.75
0.89453
1.0488
1.1348
1.0801
0.92969
0.78516
0.70508
0.67969
0.67578
0.66406
0.66016
0.66016
0.6543
0.6543
0.65039
0.65039
0.64063
0.64063
0.64063
0.63477
0.63477
0.63477
0.63477
0.63477
0.64063
0.65039
0.66016
0.66992
0.67969
0.68945
0.69922
0.70898
0.7207
0.72461
0.73438
0.74023
0.74414
0.74023
0.73438
0.72461
0.7207
0.71484
0.70898
0.70508
0.70508
0.69922
0.69922
0.69531
0.69531
0.69531
0.69531
0.69531
0.69531
0.69531
0.69531
0.69531
0.69531
0.69531
0.69922
0.70508
0.70508
0.70508
0.70898
0.70898
0.71484
0.71484
0.71484
0.71484
0.71484
0.71484
