0.98627
0.97647
0.97647
0.97647
0.96667
0.97647
0.95098
0.93137
0.93725
0.92549
0.93725
0.92157
0.90588
0.90196
0.92157
0.93725
0.97647
0.98235
0.99608
0.98235
0.97647
0.98627
0.93725
0.88627
0.8
0.77059
0.85686
1.002
1.1275
1.1824
1.1863
1.1412
1.0765
1.0569
1.0471
1.0275
1.0216
1.0118
1.002
0.99216
0.97647
0.97647
0.95686
0.94706
0.94118
0.92549
0.93725
0.92157
0.88627
0.87647
0.88627
0.8902
0.87647
0.88039
0.88039
0.88627
0.89608
0.91176
0.92549
0.92549
0.93725
0.94118
0.95098
0.94706
0.94118
0.93725
0.95098
0.92549
0.91569
0.93137
0.94706
0.92549
0.91176
0.90588
0.91176
0.90588
0.88039
0.8902
0.87647
0.86078
0.85686
0.86667
0.87059
0.86078
0.85686
0.85686
0.85686
0.85686
0.85686
0.86078
0.86667
0.85686
0.83137
0.87059
0.87647
0.87059
0.85686
0.86078
0.83529
0.85686
0.83529
0.83137
0.81569
0.81569
0.83529
0.88039
0.90196
0.91176
0.92157
0.93137
0.92549
0.93137
0.90588
0.8451
0.77059
0.75098
0.84118
1.002
1.1176
1.1627
1.151
1.102
1.0569
1.0118
0.99608
0.97647
0.97647
0.97647
0.98235
0.98627
0.97059
0.98627
0.97647
0.97647
0.96667
0.97059
0.97647
0.97647
0.97647
0.96667
0.95098
0.97647
0.97647
0.97059
0.97059
0.96078
0.95098
0.95098
0.97059
0.99216
1.002
1.002
1.0059
1.0118
1.0157
1.0157
1.0118
1.0216
1.002
1.0157
1.0118
1.002
0.99608
1.002
0.99216
0.98627
0.98235
0.97059
0.97647
0.97647
0.99216
0.96667
0.97647
0.95686
0.97059
0.95686
0.96667
0.96078
0.94706
0.93725
0.99216
1.0059
1.002
1.0059
0.97059
0.96078
0.93725
0.94706
0.95098
0.92157
0.90588
0.91176
0.8902
0.93725
0.97647
0.98627
0.99608
1.002
0.99608
1.002
0.98627
0.94118
0.89608
0.80588
0.79608
0.89608
1.0569
1.1725
1.1961
1.1863
1.1275
1.051
1.0275
1.0118
1.002
0.99216
1.002
0.97647
0.98235
0.96078
0.97059
0.97647
0.97059
0.95098
0.95686
0.95098
0.94706
0.96078
0.97059
0.95686
0.95686
0.93725
0.93137
0.94706
0.96078
0.94706
0.94118
0.96667
0.95686
0.97647
0.99216
1.002
1.0059
1.002
1.0157
1.002
1.0118
1.0157
1.002
1.0118
0.99216
0.99608
1.0059
0.99608
0.97059
0.99216
1.002
0.97647
0.98235
0.95686
0.96078
0.97647
0.95686
0.93137
0.92549
0.95686
0.96078
0.95686
0.95098
0.95098
0.96078
0.95686
0.94118
0.94706
0.93137
0.90588
0.8902
0.90588
0.8902
0.90588
0.90588
0.89608
0.94706
0.95686
0.95098
0.98235
0.98627
0.98627
0.99608
1.002
0.92157
0.86667
0.79608
0.82549
0.91176
1.0667
1.1725
1.1961
1.1824
1.1275
1.0824
1.0569
1.0216
1.0216
1.0118
0.99608
0.97059
1.0118
1.0157
1.002
1.0157
1.0118
1.0216
0.99608
0.99216
1.0157
1.002
0.99608
0.98235
0.97647
0.97647
0.97647
0.98235
0.95686
0.96667
0.98627
1.002
1.0157
1.0275
1.0412
1.0275
1.0373
1.0412
1.0216
1.0216
1.0059
1.002
1.002
0.99608
1.002
0.99216
0.97647
0.96667
1.002
0.97647
0.96667
0.97647
0.96667
0.96667
0.97059
0.95686
0.96078
0.95686
0.95098
0.94118
0.95098
0.95686
0.95098
0.95098
0.95098
0.95098
0.98235
0.96667
0.93725
0.92157
0.91569
0.90588
0.91176
0.91569
0.90588
0.89608
0.88039
0.90588
0.92157
0.93137
0.92157
0.97647
0.96667
0.97059
0.95686
0.96078
0.88627
0.82549
0.76078
0.7902
0.8902
1.0569
1.1471
1.1627
1.1373
1.0765
1.0314
1.0157
0.99608
0.98235
0.97647
0.98235
0.99216
0.97059
0.96667
0.97647
0.97059
0.95098
0.97059
0.97647
0.97059
0.95098
0.95686
0.95098
0.95686
0.93137
0.94706
0.92549
0.93137
0.93725
0.94706
0.95098
0.94118
0.97059
0.97647
0.96078
0.95686
0.95098
0.97059
0.96667
0.96078
0.95098
0.95686
0.95098
0.94118
0.94118
0.92549
0.93725
0.91569
0.93137
0.92549
0.93725
0.90588
0.91569
0.90588
0.91176
0.89608
0.91569
0.93137
0.92157
0.92549
0.90196
0.92157
0.90588
0.92157
0.92549
0.94118
0.93137
0.92549
0.92157
0.90588
0.90196
0.8902
0.90588
0.88627
0.86078
0.87059
0.87647
0.89608
0.94706
0.96667
0.97059
0.95686
0.96078
0.98627
0.96667
0.90588
0.85686
0.7902
0.84118
0.94118
1.1059
1.1922
1.1961
1.151
1.0863
1.0412
1.0157
1.0059
0.99608
0.97647
0.97647
0.97647
0.98627
0.97059
0.95686
0.98235
0.96078
0.95098
0.98627
0.97647
0.97647
0.97059
0.95686
0.96667
0.95098
0.95098
0.95098
0.95686
0.95098
0.93725
0.96667
0.96078
0.98235
1.002
1.0157
1.0216
1.0059
1.0216
1.0118
1.0059
0.99608
0.98235
0.97647
0.97647
0.97059
0.96078
0.97647
0.97647
0.97647
0.97059
0.95686
0.94706
0.95098
0.95686
0.95098
0.93725
0.95686
0.94706
0.95686
0.94706
0.94118
0.95098
0.97059
0.96667
0.96078
0.97647
0.96667
0.95098
0.94706
0.93725
0.92549
0.92157
0.92157
0.89608
0.8902
0.86667
0.88039
0.94118
0.98235
1.002
1.0118
1.002
1.0216
1.0157
0.99216
0.92157
0.84118
0.81176
0.87647
1.0275
1.151
1.1961
1.1765
1.1373
1.0608
1.0373
1.0118
1.0216
1.0216
1.002
1.002
1.002
0.99216
0.98235
0.99608
0.97059
0.97647
0.98235
0.97647
0.97647
0.97059
0.98627
0.96667
0.95686
0.96078
0.95098
0.96667
0.97059
0.96667
0.95686
0.97647
0.97059
0.98627
1.002
0.98235
0.99608
0.99216
1.0059
1.002
0.98627
0.96667
0.98235
0.97059
0.98235
0.97059
0.96667
0.94706
0.95686
0.95098
0.95098
0.95098
0.95098
0.95686
0.94706
0.95098
0.95686
0.95098
0.95686
0.95098
0.94706
0.94118
0.94706
0.95098
0.94118
0.93725
0.95098
0.95098
0.94706
0.92549
0.91176
0.90588
0.90588
0.90588
0.88627
0.89608
0.92549
0.95098
0.95686
0.97059
0.97647
0.98235
1.002
0.98627
0.93137
0.8902
0.82549
0.82157
0.8902
1.0373
1.1569
1.1824
1.1725
1.1216
1.0667
1.0216
1.0118
0.99608
1.002
0.99608
0.98627
0.99216
0.98235
0.99216
1.002
0.99608
0.97647
0.98627
0.98235
0.97647
0.95098
0.97647
0.97647
0.97647
0.95686
0.94118
0.95098
0.96667
0.97059
0.97647
0.97647
0.98627
0.99608
0.98627
1.002
1.002
0.99608
1.0059
1.002
0.98235
0.96078
0.97647
0.97647
0.97647
0.97647
0.97647
0.96078
0.97059
0.96667
0.95686
0.94706
0.92549
0.94706
0.93137
0.93725
0.95098
0.95686
0.94118
0.95098
0.94706
0.94706
0.94706
0.94706
0.94118
0.94706
0.93725
0.94118
0.93137
0.93725
0.92549
0.93137
0.91176
0.91176
0.8902
0.87647
0.86667
0.90588
0.94706
0.95686
0.96667
0.97647
0.98627
0.99216
0.99608
0.97647
0.93137
0.86667
0.81176
0.84118
0.97059
1.1118
1.1863
1.1824
1.1471
1.0863
1.0412
1.0216
1.002
0.97647
0.96667
1.0059
1.002
1.0059
1.002
0.99216
0.97647
0.98627
1.002
0.99608
0.98627
1.002
0.96667
0.98627
0.97647
0.96078
0.95098
0.94706
0.98235
0.97647
0.97059
0.96667
0.98627
0.99608
1.002
1.0157
1.0118
1.0216
1.002
1.0059
1.002
1.0059
0.99216
0.98627
0.99216
1.002
0.98235
0.96667
0.95098
0.97647
0.95098
0.96667
0.97647
0.96667
0.96667
0.95686
0.96667
0.95686
0.96667
0.95098
0.96078
0.96078
0.97059
0.97647
0.97059
0.99216
0.98235
0.99608
0.97647
0.96667
0.95098
0.95098
0.93137
0.94118
0.93725
0.91569
0.90196
0.91176
0.94706
0.99216
1.0157
1.002
1.0118
1.0216
1.0373
1.0314
0.96667
0.8902
0.83137
0.88039
1.0059
1.1412
1.2216
1.1863
1.1765
1.102
1.0824
1.0608
1.0314
1.0216
1.0118
1.0216
1.002
1.0118
1.002
1.0157
0.98235
0.99216
0.99608
0.99216
0.99608
0.99608
1.002
0.98627
0.97647
0.97647
0.98235
0.97647
0.97647
0.98235
0.97647
0.98235
0.99216
0.99608
1.002
1.0157
1.0118
1.0216
1.0157
1.0314
1.0118
1.002
1.0157
0.98627
0.99608
0.99216
1.002
0.99216
0.98235
0.99216
0.98235
0.98627
0.99216
0.98235
0.98235
0.98235
0.97059
0.97647
0.97059
0.98235
0.97647
0.95686
0.95098
0.98235
1.002
0.99608
1.002
0.99608
0.99216
1.002
0.98235
0.95686
0.94706
0.95098
0.93725
0.92549
0.90588
0.94118
0.95686
0.99608
1.0216
1.0157
1.0275
1.0412
1.0216
0.99608
0.93725
0.86667
0.85686
0.93725
1.0863
1.2078
1.2314
1.2078
1.151
1.1059
1.0725
1.0471
1.051
1.0275
1.0059
1.0216
1.0118
1.0216
1.0373
1.0216
1.0118
1.002
1.0059
1.002
1.0059
1.0059
1.002
0.99608
0.97059
0.98235
0.99608
0.97647
0.98235
0.99216
0.98627
1.002
0.99608
1.0118
1.0118
1.0314
1.0118
0.99608
1.0157
1.0314
1.0216
1.0059
1.0118
1.0059
0.98235
0.99608
1.002
0.99216
0.97647
0.99608
0.98627
0.98235
0.98627
1.0059
0.98627
0.97647
0.97647
0.97647
0.97059
0.97647
0.98627
0.96667
0.99216
0.98235
0.97647
0.98627
0.99216
0.97647
0.98235
0.97059
0.97647
0.95098
0.96667
0.94118
0.92549
0.93137
0.96078
0.97647
0.99608
1.0275
1.0216
1.0373
1.0314
1.0373
0.98235
0.95098
0.8902
0.8451
0.89608
1.0275
1.1569
1.2118
1.2216
1.1725
1.1118
1.0765
1.051
1.0314
1.0275
1.051
1.0373
1.002
1.0157
1.0157
1.0275
1.0216
1.0275
1.0314
1.0216
1.0314
1.0314
1.0216
1.0059
0.99216
0.99608
0.98627
1.0059
1.0059
1.0157
1.0059
1.002
1.0216
1.0314
1.0471
1.0412
1.0471
1.0471
1.051
1.0471
1.0314
1.0275
1.0118
1.0216
1.0314
1.0216
1.0275
1.0059
1.0216
1.0059
1.002
1.0059
1.002
0.98627
0.97059
0.96667
0.99608
0.97647
0.97059
0.99216
0.99608
0.98627
0.98627
0.97647
0.97647
0.97647
0.99216
0.98235
0.97647
0.98627
0.97647
0.96078
0.96667
0.95098
0.93725
0.92549
0.91176
0.92157
0.94706
0.96667
0.99216
1.0118
1.0157
1.0216
1.002
0.99608
0.95098
0.8902
0.81569
0.8451
0.93725
1.102
1.2118
1.2216
1.1627
1.1176
1.0824
1.051
1.0471
1.0569
1.0412
1.0216
1.0157
1.0118
1.0216
1.002
1.0314
1.0157
1.0157
1.0157
1.0216
1.0157
1.0157
1.0118
1.002
0.98235
0.98235
0.98627
0.92549
0.97647
0.99608
0.98627
1.0059
1.0275
1.0314
1.0412
1.0314
1.0314
1.0412
1.0314
1.0118
1.0216
1.0275
1.0157
0.99608
1.002
1.002
1.002
0.99216
1.002
0.99216
1.002
0.99608
0.97647
0.97647
0.97059
0.98235
0.97647
0.96667
0.95686
0.96078
0.95098
0.95686
0.95098
0.96667
0.95098
0.97647
1.002
0.98235
0.97059
0.95686
0.95098
0.94118
0.94706
0.91569
0.91176
0.90196
0.90196
0.93137
0.97059
0.97647
1.0059
1.0059
1.0216
0.99608
1.002
0.98235
0.90588
0.84118
0.81569
0.93137
1.0765
1.1922
1.2275
1.202
1.1569
1.0961
1.0471
1.0373
1.0059
1.0275
1.0412
1.0275
1.0118
1.0216
1.0157
1.0373
1.0157
1.0118
1.0059
0.99608
0.99216
0.98235
1.0059
1.002
1.0059
0.99608
1.002
0.99216
0.99608
0.98627
0.99216
0.98627
1.0059
1.0059
1.0216
1.0216
1.0412
1.0608
1.0471
1.0412
1.0157
1.0118
1.0216
1.0216
1.0059
1.002
1.002
1.002
1.002
1.002
1.0059
0.98235
0.98627
0.97647
0.99216
0.95098
0.97059
0.97647
0.99608
1.002
0.97647
0.97059
0.98627
0.99216
0.98235
0.99216
0.98627
0.99608
0.97059
0.94118
0.96078
0.97647
0.94706
0.93725
0.92157
0.92157
0.91569
0.95098
0.98627
1.002
0.99216
1.0157
1.0216
1.0314
1.0157
0.97059
0.92549
0.85686
0.8451
0.95686
1.0863
1.1961
1.2216
1.1922
1.1373
1.102
1.0471
1.0412
1.0275
1.0118
1.0216
1.0118
1.0216
0.99608
1.0157
1.0216
1.0118
1.0157
1.002
0.99216
0.98235
0.98627
0.97059
0.97647
0.97059
0.97647
0.95098
0.96667
0.97647
0.97647
0.96667
0.98235
0.97059
1.002
1.0216
1.0275
1.0059
1.0157
1.0216
1.002
0.99608
1.0157
1.002
0.99608
1.002
0.98235
0.97647
0.98235
0.97647
0.97647
0.95098
0.96078
0.96078
0.95098
0.97059
0.95098
0.96078
0.94706
0.95098
0.94118
0.95098
0.94706
0.96078
0.95098
0.94706
0.95098
0.97059
0.96078
0.95098
0.93725
0.93137
0.92549
0.91569
0.92157
0.90196
0.88039
0.8902
0.93725
0.94706
0.97059
0.99608
1.002
1.002
1.0059
0.98627
0.93137
0.87059
0.81176
0.84118
0.95098
1.1059
1.1863
1.1824
1.1412
1.0922
1.0608
1.0275
1.0157
1.002
1.002
1.002
1.002
1.002
0.98627
0.98235
0.99216
1.0059
0.99216
0.98627
1.002
1.0118
0.99608
0.99216
0.99608
0.99216
0.97647
0.98235
0.95098
0.96078
0.97059
0.99216
1.0118
1.0157
1.0216
1.0157
1.0314
1.0373
1.0314
1.0275
1.0216
1.002
1.0157
1.0275
1.0059
1.0216
1.0275
1.002
0.99216
0.97647
0.99216
0.98627
0.99216
0.96078
0.97647
0.98627
0.97647
0.97059
0.98235
0.97647
0.96078
0.96667
0.97647
0.97647
0.96667
0.96667
0.97059
0.95686
0.97647
0.95098
0.96078
0.94118
0.92549
0.91569
0.92549
0.91176
0.8902
0.92157
0.95098
0.96078
0.98627
0.98235
1.0118
1.002
0.99608
0.97647
0.91569
0.84118
0.7902
0.8451
0.94706
1.102
1.1863
1.1824
1.1863
1.0863
1.0569
1.0275
1.0314
1.0157
1.002
0.99216
1.002
0.99608
0.99216
0.96667
0.99608
1.002
1.002
1.0059
0.98627
0.99216
0.98235
0.98235
0.99216
0.98235
0.97059
0.98235
0.97647
0.98235
0.97059
0.95686
0.99216
1.002
0.99608
1.002
1.0059
1.0118
1.0157
1.0059
0.98627
1.002
0.99216
0.97647
0.96667
0.98235
0.95686
0.95098
0.97647
0.95686
0.95686
0.94118
0.95098
0.96667
0.95098
0.95098
0.93725
0.92549
0.95098
0.95098
0.95098
0.94706
0.95098
0.94118
0.95098
0.95686
0.94706
0.95098
0.95686
0.93725
0.94706
0.92549
0.93725
0.92549
0.91176
0.90196
0.88627
0.88627
0.87059
0.91569
0.95098
0.97059
0.97647
0.96078
0.99608
0.99608
0.98235
0.95098
0.88039
0.80588
0.8451
0.95686
1.1176
1.202
1.2078
1.1765
1.1059
1.051
1.0118
1.0216
1.0157
1.002
1.002
0.99216
1.002
1.0059
1.0118
1.002
0.97647
0.97059
0.97647
0.97059
0.97647
0.98627
0.99608
0.96667
0.97647
0.98235
0.97059
0.95098
0.97059
0.97059
0.99216
0.99608
0.97059
0.99216
1.0059
1.0157
1.0059
1.0118
1.0157
0.99608
0.97647
0.99216
0.98235
0.98627
0.97647
0.96667
0.97647
0.98627
0.96667
0.96078
0.97059
0.95098
0.95098
0.94118
0.95686
0.94706
0.93725
0.95098
0.94118
0.95098
0.93137
0.96667
0.96078
0.95098
0.97059
0.95686
0.95686
0.96078
0.95098
0.94118
0.93137
0.92549
0.91176
0.88627
0.90196
0.90588
0.88039
0.93725
0.95686
0.98627
1.0059
1.0059
1.0118
1.002
0.97647
0.95098
0.88039
0.80588
0.86078
0.98235
1.1275
1.202
1.2118
1.151
1.1059
1.0667
1.0373
1.0216
1.0157
1.002
1.0059
0.99216
0.99608
0.98627
1.0059
1.0118
0.99608
0.99608
0.96667
0.97059
0.99216
0.97647
0.98235
0.97647
0.97647
0.96667
0.96078
0.96667
0.97059
0.96667
0.98235
0.98627
1.002
1.0118
1.0059
1.0157
1.002
1.002
1.0216
1.0059
0.99608
1.0118
1.002
1.0059
1.002
1.002
1.002
0.97647
0.96667
0.96667
0.96078
0.95686
0.97059
0.98235
0.97647
0.98235
0.97059
0.97647
0.97647
0.98627
0.97647
0.96667
0.97059
0.97647
0.98235
0.97059
0.98235
0.95686
0.97647
0.94118
0.93725
0.92549
0.94118
0.93137
0.91569
0.90588
0.96667
0.99216
1.0059
1.0118
0.99608
1.0118
1.002
1.0118
0.97059
0.91569
0.83137
0.85098
0.94118
1.1059
1.2078
1.2216
1.1765
1.1471
1.102
1.0667
1.0373
1.0216
1.0118
1.0314
1.0216
1.0157
1.002
1.0059
1.0275
1.0373
0.98627
1.0157
1.0216
1.0275
1.0157
1.0118
0.99608
1.0059
1.0157
1.002
1.0059
0.99216
1.0157
1.0118
1.0275
1.0412
1.0608
1.0412
1.0314
1.0471
1.051
1.0569
1.0569
1.0373
1.0314
1.0275
1.0157
1.0216
1.0314
1.0314
1.0059
1.0216
1.0275
1.0157
1.0157
1.0118
0.99216
0.99608
1.002
0.99608
1.0118
0.99608
0.98627
0.99216
0.97647
0.99216
0.97647
0.99608
1.002
0.98627
0.97647
0.97647
0.95686
0.94706
0.93725
0.93137
0.93137
0.90588
0.90196
0.94706
0.97647
0.96667
1.002
1.002
1.0059
1.0059
1.0157
0.97647
0.91176
0.8451
0.81176
0.86667
1.002
1.1471
1.202
1.2078
1.151
1.102
1.0667
1.0412
1.0373
1.0216
1.0118
1.0157
1.002
0.99608
0.99216
1.0275
1.0157
1.002
1.002
1.0118
1.002
1.002
1.002
1.002
1.002
0.99216
0.98627
0.98235
0.99216
0.97647
0.98235
0.97647
1.0059
1.0118
0.99216
1.0157
1.0275
1.0216
1.0373
1.0216
1.0275
1.0059
0.99216
0.98627
0.99608
0.96667
0.95686
0.98627
0.99216
0.97059
0.96078
0.97647
0.96667
0.97647
0.99216
0.96667
0.97059
0.96667
0.95686
0.96078
0.97059
0.95098
0.95686
0.94118
0.95686
0.96667
0.97059
0.98235
0.95098
0.94706
0.95098
0.94706
0.92549
0.91569
0.91176
0.90196
0.88039
0.86078
0.90196
0.93137
0.94118
0.97059
0.97647
0.98235
0.99216
0.98627
0.95686
0.8902
0.81176
0.7902
0.85686
1.0275
1.1627
1.1922
1.1627
1.1216
1.0608
1.0314
1.002
0.99608
0.99216
0.98235
0.99216
0.99608
0.99216
0.98235
0.99608
0.99216
0.98235
0.97647
0.96078
0.97647
0.96078
0.98235
0.98627
0.96078
0.97647
0.97059
0.94706
0.94706
0.94706
0.96078
0.98235
0.97059
0.99216
1.0157
1.002
1.002
0.99216
1.0118
1.0216
0.98627
0.96078
0.98235
0.98627
0.95098
0.96078
0.96078
0.96667
0.95098
0.95098
0.96078
0.94706
0.93725
0.94118
0.92157
0.94706
0.92549
0.91569
0.92549
0.93725
0.91569
0.93137
0.93725
0.93137
0.93725
0.93137
0.95098
0.94706
0.92549
0.92549
0.91176
0.91176
0.89608
0.8902
0.88039
0.86078
0.85686
0.91569
0.94706
0.95098
0.97059
0.98235
0.99216
0.97647
0.98627
0.96078
0.8902
0.82157
0.8
0.90196
1.0569
1.1765
1.1922
1.1824
1.1314
1.0608
1.0216
1.0059
1.0157
1.0059
1.0157
1.0216
1.002
0.99608
0.98627
0.99216
0.95686
0.99608
0.98627
1.002
1.002
0.99608
0.98235
0.98235
0.97647
0.98235
0.94706
0.98235
0.98235
0.97647
0.99216
0.99608
1.002
1.0216
1.0118
1.0059
1.0216
1.0118
1.0157
1.0118
1.002
0.99608
0.99216
1.002
1.0118
1.002
1.002
0.99216
0.99608
0.96667
0.97059
0.95098
0.96667
0.97647
0.94706
0.93725
0.94118
0.95098
0.94118
0.96078
0.95098
0.95098
0.94706
0.94706
0.93137
0.95686
0.92549
0.93725
0.94706
0.95098
0.92157
0.91569
0.92549
0.90588
0.90588
0.8902
0.8902
0.93137
0.94118
0.93137
0.95686
0.97059
0.96078
0.96667
0.97059
0.8902
0.82157
0.77647
0.83137
0.98627
1.1314
1.1863
1.1627
1.1569
1.1216
1.0863
1.0608
1.0471
1.0412
1.0275
1.0157
1.0216
1.0157
0.97647
1.0118
1.0157
0.99608
1.002
1.0059
0.99608
1.002
1.002
0.99608
0.99216
0.98235
0.96667
0.97647
0.98235
0.97059
0.98235
0.98627
0.97059
0.97647
0.99216
1.002
0.99608
1.0059
1.002
1.0059
1.002
0.99608
1.0216
1.0314
1.0157
1.0118
1.002
1.002
0.97647
1.002
0.98627
0.97647
0.97647
0.96667
0.95098
0.94706
0.93137
0.91569
0.91176
0.91569
0.90196
0.89608
0.90588
0.91176
0.91569
0.90588
0.93725
0.95098
0.93725
0.93137
0.93725
0.92549
0.91569
0.91176
0.92157
0.90588
0.90588
0.90196
0.92549
0.95098
0.97647
0.98235
0.97059
0.96078
0.95686
0.96078
0.91176
0.85098
0.78039
0.76078
0.84118
0.99608
1.1216
1.1412
1.1216
1.0608
1.0059
0.96667
0.93137
0.92549
0.92157
0.90588
0.8902
0.88039
0.87059
0.86078
0.94706
0.95098
0.94118
0.94706
0.93137
0.92549
0.92549
0.92549
0.88627
0.90196
0.90588
0.90196
0.90588
0.92157
0.93137
0.90588
0.92549
0.96078
0.98627
0.99216
1.0059
1.0118
1.0059
1.0118
1.002
1.0216
1.0314
1.0157
1.002
1.002
1.0059
0.97647
0.97059
0.94118
0.93725
0.92549
0.93725
0.92549
0.93137
0.92157
0.90588
0.89608
0.89608
0.90196
0.85686
0.87059
0.8902
0.88039
0.87647
0.87647
0.88039
0.88039
0.86078
0.8451
0.83529
0.84118
0.82157
0.83137
0.81176
0.81176
0.80588
0.79608
0.82549
0.86667
0.89608
0.88039
0.91176
0.89608
0.87059
0.88039
0.8902
0.85686
0.77647
0.73137
0.78039
0.89608
1.0824
1.1569
1.1627
1.0961
1.0118
0.98235
0.97647
0.95686
0.96078
0.94706
0.93725
0.93137
0.95098
0.95686
0.92549
0.95098
0.94118
0.93725
0.95098
0.95098
0.95686
0.93725
0.92549
0.94706
0.93137
0.95098
0.93725
0.95098
0.94118
0.93725
0.95686
0.96667
0.96078
0.98235
0.98627
0.98235
0.99216
0.99608
1.002
0.98627
1.002
0.98627
1.002
0.98627
0.97647
0.97647
0.96078
0.94706
0.94118
0.94706
0.92157
0.91176
0.90588
0.88039
0.86667
0.85686
0.84118
0.85686
0.86078
0.83137
0.83137
0.84118
0.84118
0.85686
0.86667
0.88039
0.88627
0.85686
0.88627
0.87059
0.85686
0.86667
0.86078
0.86667
0.88039
0.88039
0.90196
0.94706
0.95686
0.98235
0.99216
1.002
0.99608
1.0216
0.96667
0.91176
0.82549
0.82157
0.96078
1.102
1.2118
1.2373
1.2176
1.151
1.0961
1.0608
1.0373
1.0412
1.0471
1.0216
1.0569
1.0471
1.051
1.051
1.0569
1.051
1.0608
1.051
1.0314
1.0157
1.002
1.0216
1.0216
1.0059
1.002
1.002
0.99216
0.99216
1.002
1.0118
1.0118
1.0216
1.0216
1.0314
1.0216
1.0569
1.0471
1.0569
1.0608
1.0314
1.0216
1.0275
1.002
0.99216
1.002
0.98627
0.96667
0.99608
0.99608
0.99608
0.98627
0.99216
0.97647
0.95686
0.97059
0.97059
0.93725
0.93137
0.94118
0.93137
0.90588
0.92157
0.94118
0.93137
0.92549
0.92549
0.91569
0.89608
0.88039
0.88039
0.8902
0.90196
0.88627
0.87647
0.90196
0.94118
0.98235
1.0275
1.0569
1.0765
1.0922
1.102
1.1059
1.0922
1.0471
0.96078
0.94118
1.0157
1.1667
1.2824
1.3431
1.3471
1.2824
1.2431
1.1863
1.1863
1.1765
1.1725
1.151
1.1373
1.1314
1.1118
1.0922
1.0922
1.0608
1.051
1.0314
1.0157
1.0059
0.97059
0.93725
0.8902
0.84118
0.7902
0.72157
0.6098
0.53529
0.4549
0.35882
0.2
0.062745
-0.15686
-0.26667
-0.28235
-0.27647
-0.33333
-0.25686
-0.15098
-0.086275
-0.031373
0.039216
0.11961
0.22941
0.32941
0.44902
0.61961
0.7902
0.98235
1.151
1.3118
1.398
1.3216
1.1314
1.1176
1.1863
1.202
1.1765
1.2078
1.2216
1.2627
1.3078
1.3431
1.3725
1.3784
1.3725
1.3569
1.3471
1.3333
1.3275
1.302
1.3118
1.2882
1.2627
1.2373
1.2118
1.1765
1.1922
1.2118
1.2118
1.2176
1.2176
1.2118
1.2176
1.202
1.1863
1.1314
1.0608
1.0059
1.0471
1.1412
1.2765
1.3471
1.3275
1.2922
1.2275
1.1824
1.1667
1.1569
1.1627
1.1569
1.1216
1.1176
1.1314
1.1314
1.1176
1.102
1.1059
1.1118
1.0922
1.1059
1.1118
1.0922
1.0765
1.0725
1.0608
1.0725
1.0667
1.0569
1.0608
1.0725
1.0824
1.0961
1.102
1.0922
1.0961
1.0725
1.0961
1.0824
1.0922
1.0765
1.0824
1.0608
1.051
1.0471
1.0471
1.0275
1.0216
1.0275
1.0373
1.0118
1.0059
1.002
0.98235
1.0157
1.0216
0.99216
0.98627
1.002
0.98235
0.98627
0.97647
0.98235
0.97647
0.97647
0.97647
0.97647
0.99216
0.97647
0.96078
0.95686
0.94118
0.92549
0.92549
0.92157
0.90588
0.88627
0.88039
0.93725
0.98235
0.99608
0.98627
0.98627
1.002
0.97647
0.98627
0.91569
0.84118
0.77059
0.84118
0.97059
1.1216
1.1961
1.1667
1.1314
1.0667
1.0216
0.99608
0.96078
0.95098
0.95686
0.95098
0.96667
0.96078
0.95686
0.96078
0.96667
0.96078
0.95098
0.97059
0.95098
0.91569
0.92549
0.95098
0.94706
0.92549
0.94118
0.92549
0.93725
0.93725
0.95098
0.94706
0.95686
0.96667
0.95098
0.97647
0.97059
0.96667
0.97059
0.95686
0.95098
0.96078
0.95098
0.95686
0.94118
0.95098
0.93137
0.94706
0.92549
0.91569
0.92549
0.93137
0.92549
0.94118
0.93725
0.94118
0.92157
0.91176
0.90588
0.91569
0.92157
0.90196
0.90588
0.92157
0.93137
0.93725
0.92549
0.93725
0.94706
0.92157
0.90588
0.8902
0.89608
0.87059
0.88627
0.86078
0.85098
0.88627
0.93137
0.95098
0.97059
0.97647
0.98235
0.98235
0.98235
0.96078
0.89608
0.81569
0.7902
0.85098
1.0157
1.151
1.1922
1.1627
1.1176
1.0765
1.0314
1.0216
1.002
1.0059
1.002
1.0059
1.002
0.99608
0.99216
0.99608
0.98627
0.95686
0.97647
0.98627
0.97647
0.95686
0.96078
0.96667
0.95686
0.94118
0.95686
0.93725
0.95686
0.97059
0.97647
0.98627
1.002
1.002
0.99608
1.0118
1.0157
1.0118
1.0118
1.002
1.0216
1.0118
1.002
1.002
1.0118
0.99608
1.002
0.98627
0.99216
0.98235
0.97059
0.97647
0.97059
0.97647
0.96667
0.97647
0.96078
0.96667
0.97647
0.97647
0.97059
0.97647
0.96078
0.96667
0.97647
0.96667
0.97059
0.97647
0.95098
0.94706
0.90588
0.92549
0.93137
0.92157
0.88627
0.90196
0.90588
0.92549
0.97647
0.99216
1.002
0.98627
0.97647
0.99608
1.0157
0.96078
0.89608
0.82549
0.81176
0.90588
1.0824
1.1765
1.2176
1.1863
1.1412
1.0922
1.0667
1.0471
1.0373
1.0216
1.0373
1.0412
1.0275
1.0157
1.0216
1.0314
1.0275
1.0059
1.0059
1.0157
1.002
1.0118
0.99608
0.99216
0.97647
0.99216
0.98627
0.99608
0.99608
1.0118
1.0059
1.0216
1.002
1.0059
1.0157
1.0373
1.0412
1.002
1.002
1.0216
1.0275
1.002
1.0059
0.99608
0.99216
0.98235
0.98627
0.97647
0.98627
0.96078
0.98627
0.97059
0.98627
0.98627
0.98235
0.97647
0.98235
0.96078
0.97647
0.97059
0.97647
0.96078
0.97647
0.96667
0.97059
0.95098
0.97059
0.98627
0.97647
0.97059
0.95686
0.94706
0.93725
0.93137
0.91569
0.90588
0.90196
0.8902
0.90588
0.96078
0.98235
1.002
1.002
1.002
0.99216
0.99608
0.98235
0.93137
0.86078
0.82549
0.86078
1.0059
1.1314
1.2078
1.1961
1.1471
1.0765
1.0314
1.0216
0.99608
1.002
0.99608
1.0059
1.002
0.98235
0.97647
0.97647
0.98235
0.97059
0.96667
0.96078
0.96667
0.95098
0.94706
0.94118
0.95098
0.94118
0.95098
0.94118
0.94706
0.94706
0.95098
0.97647
1.002
0.99608
1.002
0.98627
0.98627
0.99608
1.002
0.97647
0.98235
0.95686
0.95098
0.97059
0.98235
0.97647
0.96667
0.95686
0.95098
0.97059
0.95098
0.96667
0.95686
0.96078
0.94706
0.95098
0.93137
0.91569
0.94706
0.95098
0.93137
0.94706
0.93725
0.95686
0.96078
0.95686
0.97059
0.96078
0.94706
0.95686
0.95098
0.94706
0.92157
0.90588
0.8902
0.89608
0.88039
0.90196
0.94118
0.97647
0.99216
1.002
0.98235
0.97647
0.99608
1.0118
0.96078
0.89608
0.82549
0.81569
0.94706
1.102
1.1922
1.2118
1.2176
1.1059
1.0608
1.0569
1.0314
1.0157
1.002
1.0118
1.002
1.0059
0.99608
1.0118
1.0216
0.98627
0.97647
0.97647
0.99216
0.99216
0.98627
0.98235
0.97059
0.95098
0.96667
0.96078
0.97647
0.96078
0.95098
0.95098
0.97059
0.99216
1.002
1.0157
1.0059
1.0118
1.0118
1.002
1.002
0.97647
0.99608
0.97647
0.98235
0.97647
0.96667
0.97647
0.98235
0.97059
0.97647
0.97647
0.96667
0.96078
0.95098
0.94706
0.95098
0.95098
0.95098
0.95098
0.94706
0.92157
0.94706
0.95098
0.93725
0.93137
0.94706
0.95098
0.92549
0.92157
0.91569
0.90588
0.88039
0.89608
0.89608
0.88039
0.85686
0.87059
0.90196
0.94118
0.95098
0.96667
0.98235
0.96667
0.95098
0.96667
0.93725
0.87647
0.8
0.7902
0.88627
1.0275
1.1275
1.1412
1.1314
1.0765
1.0275
0.99608
0.99608
0.97647
0.97059
0.96667
0.95098
0.95686
0.95098
0.96078
0.97647
0.97059
0.95098
0.95686
0.97059
0.96078
0.95686
0.97059
0.96078
0.94706
0.95098
0.93137
0.96078
0.97059
0.98235
0.98627
1.002
1.0059
1.0118
1.0216
1.0314
1.0216
1.0059
1.0157
1.0216
0.99608
1.0059
0.99608
1.002
0.98627
0.99216
0.98235
0.99216
0.98627
0.99216
0.97059
0.97647
0.97647
0.97647
0.97647
0.98235
0.95686
0.95098
0.96667
0.98627
0.99216
0.97647
0.97647
0.97059
0.98235
0.97647
0.98235
0.97059
0.98235
0.97059
0.94706
0.93137
0.94706
0.92549
0.93137
0.91176
0.90588
0.94706
0.97647
1.002
1.0118
1.0216
1.002
1.002
1.0216
0.98627
0.92549
0.83529
0.8
0.8902
1.0275
1.1667
1.2078
1.1922
1.1412
1.0922
1.0471
1.0373
1.0412
1.0471
1.0216
1.0216
1.0275
1.0157
1.0216
1.0314
1.0157
1.002
1.0216
1.0216
1.002
1.002
1.0059
1.0059
1.0118
1.0216
1.002
0.98235
1.002
0.99608
1.0118
1.0216
1.0157
1.0314
1.0412
1.0314
1.0216
1.0608
1.051
1.0412
1.0216
1.0314
1.0216
1.0275
1.0059
1.0059
1.002
0.99608
0.99216
1.0157
1.0118
0.99608
1.002
0.98627
0.98235
1.002
0.98627
0.99608
0.98235
0.97059
0.97647
1.002
0.99608
1.002
1.0118
1.002
1.002
0.99216
1.002
1.0157
1.0059
1.002
0.96078
0.98235
0.98627
0.94706
0.94118
0.92157
0.91569
0.95098
0.99608
1.0118
1.0157
0.99608
1.0373
1.0373
1.0471
1.002
0.94706
0.87647
0.85686
0.92157
1.0667
1.1961
1.2373
1.2118
1.151
1.1216
1.0824
1.0373
1.0314
1.0373
1.0314
1.0373
1.0314
1.0373
1.0314
1.0275
1.0412
1.0314
1.0118
1.0275
1.0216
1.0059
1.002
1.0216
1.002
1.0059
1.0157
1.002
1.0059
1.002
1.0275
1.0275
1.0314
1.051
1.0608
1.0471
1.0667
1.0667
1.0667
1.0471
1.0314
1.0373
1.0275
1.0216
1.0275
1.0059
1.0412
1.0216
1.0118
1.0157
1.0059
1.0059
1.0059
0.99608
0.99216
0.98627
0.99216
0.98235
0.99608
0.97647
1.0118
1.002
0.99608
1.002
1.0157
1.002
1.002
1.0059
0.99216
0.97647
0.98627
0.99216
0.97059
0.97647
0.96078
0.97059
0.97647
0.95098
0.99216
1.0216
1.0216
1.0314
1.0275
1.0216
1.0275
1.0118
0.95686
0.87059
0.83529
0.89608
1.0412
1.1725
1.2373
1.2078
1.1765
1.102
1.0824
1.0471
1.0471
1.0373
1.0118
1.002
0.99216
1.0118
1.0059
1.0157
1.002
1.0118
0.98627
0.98235
1.002
0.98627
0.99216
0.97647
0.97059
0.97647
0.94706
0.96667
0.95686
0.97059
0.97647
0.98627
0.97647
1.0118
0.99608
1.002
1.0059
0.99608
1.0118
1.0059
1.0157
1.002
0.98627
0.99216
1.002
0.99216
0.97647
0.96078
0.97647
0.96078
0.97647
0.97059
0.95686
0.95098
0.96078
0.94118
0.94706
0.93137
0.94706
0.92157
0.94706
0.95098
0.95098
0.94706
0.96078
0.94706
0.96078
0.97059
0.95098
0.96078
0.93725
0.93137
0.90588
0.90196
0.90588
0.88039
0.8902
0.91569
0.93725
0.94706
0.98235
1.002
0.98627
0.97647
0.97647
0.95686
0.90588
0.82157
0.7902
0.87647
1.0157
1.1176
1.1725
1.1627
1.1216
1.0608
1.0157
0.99608
0.99216
1.002
1.002
0.98627
0.99216
0.99608
0.97647
0.95686
0.98235
0.97647
0.97059
0.98627
0.99216
0.96078
0.95686
0.96667
0.95098
0.95686
0.96078
0.92549
0.92157
0.97647
0.97647
0.99216
0.99608
1.002
1.0157
1.0216
1.0216
1.0275
1.0157
1.0216
1.0118
0.99608
1.0118
1.0216
1.0059
1.002
0.99216
0.98627
0.99608
0.99216
0.98235
0.96667
0.98235
0.98627
0.97059
0.97647
0.97647
0.97059
0.97647
0.97059
0.97059
0.96667
0.96078
0.96667
0.96078
0.97059
0.97647
0.97647
0.94706
0.95098
0.95098
0.95098
0.94706
0.92157
0.92549
0.90588
0.90196
0.93137
0.95686
0.98235
0.99608
1.0216
0.98235
1.002
0.98627
0.97647
0.93137
0.86667
0.80588
0.8451
0.96078
1.1059
1.1863
1.1863
1.1765
1.1176
1.0608
1.0314
1.0275
1.0373
1.0216
1.0118
1.0157
1.0059
1.0157
1.0059
1.0275
1.0216
1.0059
1.002
1.0118
1.0216
1.0216
1.0118
1.0118
0.98627
1.002
1.002
0.99608
1.002
1.0059
1.0157
1.0118
1.0412
1.051
1.0373
1.0314
1.0471
1.0412
1.0471
1.0157
1.0373
1.0373
1.0118
1.0059
1.0216
1.002
0.98627
0.97647
0.99608
0.98235
0.99216
0.98235
0.98627
0.99216
0.98235
0.96078
0.95686
0.96078
0.95686
0.94706
0.94118
0.92157
0.91569
0.97647
0.96667
0.95686
0.95098
0.96078
0.95686
0.97059
0.95098
0.92549
0.92549
0.92157
0.92549
0.90588
0.8902
0.87059
0.90196
0.89608
0.92549
0.96078
0.97647
0.97647
0.97059
0.99608
0.99216
0.94118
0.90588
0.84118
0.80588
0.86667
1.0157
1.1471
1.202
1.1863
1.1314
1.0667
1.0373
1.0118
1.002
1.002
1.0059
1.002
1.0059
0.97647
1.002
1.0059
0.99608
0.99216
0.97647
0.95686
0.95098
0.98627
0.99608
0.97647
0.95098
0.97059
0.97647
0.97059
0.96078
0.96667
0.97059
0.97647
0.98235
0.99216
1.0059
1.0157
1.0216
1.0216
1.0059
1.0059
0.97647
0.99608
1.0059
1.0059
1.002
0.99216
0.98627
0.97059
0.95098
0.97647
0.95686
0.97647
0.96667
0.95686
0.96078
0.95098
0.93725
0.95686
0.96078
0.94118
0.93725
0.93137
0.94706
0.94118
0.95686
0.94706
0.94706
0.95686
0.93725
0.92157
0.95098
0.93137
0.90588
0.89608
0.89608
0.88039
0.87647
0.88039
0.91569
0.94118
0.96078
0.95098
0.97059
0.97647
0.96667
0.94118
0.88627
0.8
0.78627
0.85098
0.96667
1.1118
1.1765
1.1471
1.1059
1.0412
1.002
0.97059
0.96667
0.97647
0.96078
0.95686
0.97647
0.96667
0.95098
0.95686
0.94118
0.95098
0.93725
0.92549
0.93137
0.94118
0.92549
0.92549
0.93725
0.92549
0.93725
0.91569
0.91176
0.92549
0.92549
0.92157
0.94706
0.95098
0.94706
0.95686
0.96667
0.97647
0.97059
0.97647
0.95686
0.93725
0.91569
0.92549
0.94706
0.95686
0.94118
0.95098
0.92549
0.92157
0.95098
0.94706
0.93137
0.92157
0.92157
0.91176
0.92549
0.90196
0.8902
0.91569
0.92157
0.92549
0.91176
0.91569
0.92157
0.92549
0.93137
0.92549
0.93137
0.90588
0.91176
0.89608
0.90196
0.88039
0.88039
0.87059
0.86667
0.86078
0.90196
0.91176
0.95098
0.94706
0.95686
0.98627
0.98235
0.97059
0.93137
0.86667
0.78039
0.8
0.86667
1.0216
1.1314
1.1627
1.1471
1.0922
1.0216
0.98235
0.96667
0.97059
0.97059
0.97647
0.97059
0.96667
0.96667
0.95098
0.94706
0.94118
0.95686
0.94706
0.95098
0.94706
0.93137
0.92549
0.94118
0.92549
0.92157
0.90588
0.92549
0.93137
0.94706
0.94118
0.95098
0.97059
0.96667
0.97647
0.98235
0.97059
0.98235
0.96078
0.97647
0.95098
0.94706
0.96078
0.94118
0.94706
0.95686
0.96078
0.95098
0.96078
0.95098
0.93137
0.94118
0.92549
0.92157
0.92549
0.92549
0.93725
0.90196
0.93137
0.92549
0.90588
0.90588
0.91176
0.90196
0.91569
0.90588
0.91569
0.90588
0.88627
0.90196
0.8902
0.88039
0.85686
0.86078
0.85686
0.84118
0.84118
0.85686
0.88039
0.92157
0.93137
0.92549
0.96667
0.94706
0.93725
0.94706
0.90196
0.82549
0.7451
0.8
0.89608
1.0569
1.1569
1.1627
1.1471
1.0824
1.0059
0.99608
0.98627
0.97647
0.97647
0.96078
0.97647
0.97647
0.99216
0.99608
1.002
0.99216
1.0059
0.97647
0.97647
0.98627
0.98235
0.98235
1.002
0.99216
0.98627
0.98627
0.97647
1.002
1.0216
1.0118
1.002
1.0118
1.0471
1.051
1.0412
1.0569
1.0373
1.051
1.0569
1.0412
1.0275
1.0373
1.0216
1.0216
0.99608
0.98627
0.98235
1.002
1.0157
1.0157
1.0118
1.0059
1.0157
1.0118
1.002
0.98235
0.99608
0.98235
0.97059
0.97647
0.99608
0.97059
0.98627
0.99608
1.0118
1.0118
1.0157
1.0059
1.0059
1.002
1.002
0.98235
0.96667
0.95686
0.95098
0.96667
0.94706
0.92549
0.93725
0.95686
0.99608
1.0275
1.0373
1.0216
1.0373
1.0314
1.0412
0.99216
0.92157
0.85686
0.88627
0.97059
1.1118
1.2373
1.2431
1.2118
1.1275
1.0824
1.0569
1.0471
1.0471
1.0412
1.0314
1.0412
1.0216
1.0216
1.0275
1.0216
1.0314
1.0157
1.0059
1.002
0.99216
0.99608
1.0216
1.002
1.002
1.002
1.0059
0.98627
1.0059
1.002
1.0059
1.002
1.0275
1.0373
1.0471
1.0569
1.0667
1.0412
1.0216
1.0412
1.0275
1.0373
1.0314
1.0314
1.0216
1.0157
1.0118
1.0157
1.0059
1.0118
1.002
1.0059
0.97647
0.99608
0.97647
0.96078
0.97647
0.97059
0.96667
0.95686
0.98627
0.99216
0.98235
0.97647
0.99216
0.97647
0.97059
0.99216
0.99608
0.97647
0.93137
0.92157
0.92549
0.8902
0.91569
0.92157
0.91176
0.92157
0.95686
0.97059
0.99608
0.99608
1.002
0.99608
1.0059
0.95098
0.8902
0.82549
0.81176
0.91569
1.0725
1.1765
1.1922
1.1725
1.1275
1.0667
1.0275
1.0157
1.002
1.0118
0.98235
1.0118
0.99608
0.99216
1.002
0.97647
0.96078
0.98627
0.99216
0.99216
0.99216
0.99216
0.97647
0.96078
0.96667
0.96667
0.97647
0.97647
0.95098
0.94118
0.96078
0.97647
0.97647
0.98627
0.99608
0.99216
1.0059
1.002
1.0059
0.98235
0.98235
0.95686
0.98235
0.97647
0.99608
0.98235
0.98235
0.97059
0.97059
0.96667
0.94706
0.95686
0.93137
0.95686
0.96078
0.95098
0.95098
0.94706
0.95098
0.93725
0.92549
0.93725
0.94118
0.93725
0.95098
0.94706
0.95098
0.97647
0.95686
0.96078
0.92157
0.92157
0.91176
0.90588
0.87647
0.88039
0.8902
0.92157
0.95098
0.97647
0.98235
0.96667
0.98627
0.97647
0.98627
0.94706
0.90588
0.82157
0.8
0.86667
1.0216
1.1667
1.202
1.1725
1.1216
1.0569
1.0275
1.002
0.99608
1.0059
1.002
1.0059
0.98627
0.96667
0.99608
1.002
0.98235
0.99216
0.98235
0.97647
0.99216
0.99608
0.98235
0.98627
0.97647
0.95686
0.97647
0.99608
1.002
0.99216
0.99608
1.0118
1.0216
1.0157
1.0216
1.0216
1.0314
1.0275
1.0471
1.051
1.0275
1.0216
1.0373
1.0157
1.0216
1.0157
1.0059
0.98627
1.0118
0.99216
0.98627
0.99608
0.97059
0.97647
0.97647
0.96078
0.97647
0.97059
0.96667
0.97647
0.95686
0.96667
0.95098
0.96078
0.96667
0.97647
0.96667
0.97647
0.96078
0.95098
0.96078
0.95098
0.94118
0.92157
0.91569
0.8902
0.89608
0.90588
0.92549
0.95098
0.99216
1.002
1.002
1.0216
1.002
0.98235
0.92157
0.86078
0.8
0.84118
0.93137
1.0863
1.1922
1.2118
1.1863
1.102
1.0863
1.0667
1.051
1.0314
1.0275
1.0157
1.002
1.0118
1.0118
1.0118
1.0216
0.99608
0.98627
1.002
0.99216
1.002
1.002
0.99608
1.002
1.002
0.96667
0.98235
0.98627
1.002
1.0059
1.002
1.0118
1.002
1.0059
1.0118
1.0275
1.0412
1.0157
1.002
1.0118
1.0216
0.97647
1.002
0.98627
0.97647
0.96667
0.95686
0.97059
0.95098
0.94118
0.92549
0.94706
0.95098
0.94118
0.93725
0.95686
0.91176
0.92549
0.93725
0.92549
0.92157
0.91569
0.91176
0.92157
0.90588
0.92157
0.91569
0.91176
0.92549
0.91569
0.92157
0.89608
0.88039
0.88627
0.85686
0.85098
0.84118
0.86078
0.8451
0.87059
0.91176
0.92549
0.93137
0.92549
0.94118
0.91569
0.92549
0.87059
0.82157
0.7549
0.79608
0.88627
1.0412
1.1412
1.1569
1.1118
1.0608
0.99608
0.97059
0.95686
0.94706
0.95098
0.93725
0.93137
0.94706
0.93137
0.93137
0.94118
0.92549
0.95098
0.95098
0.94118
0.92549
0.92549
0.92549
0.92549
0.91176
0.91569
0.93725
0.92549
0.93137
0.92157
0.91569
0.93725
0.95686
0.97059
0.98235
0.97647
0.98235
0.99216
0.97647
0.96078
0.94118
0.94118
0.96667
0.96078
0.96667
0.95686
0.96667
0.96078
0.95098
0.94706
0.93725
0.94118
0.92549
0.92549
0.92549
0.93725
0.94118
0.91569
0.93725
0.93137
0.94706
0.92549
0.92549
0.93725
0.93137
0.94706
0.95098
0.95686
0.93137
0.91569
0.90588
0.93137
0.91569
0.90588
0.90196
0.88627
0.88039
0.90196
0.93137
0.95098
0.97647
0.97059
0.99608
0.97059
0.99216
0.97059
0.91569
0.82549
0.78627
0.8451
0.98627
1.1118
1.1922
1.1765
1.1314
1.0608
1.0157
0.99608
0.98235
0.97059
0.96667
0.97647
0.96078
0.97647
0.95098
0.95686
0.96078
0.97059
0.95686
0.95098
0.95686
0.94706
0.95098
0.95098
0.95098
0.95098
0.94706
0.95098
0.95098
0.95098
0.95098
0.95686
0.97647
0.97647
0.98235
0.99216
0.98627
1.002
1.0216
1.0157
1.002
1.0118
1.002
1.0059
0.99608
1.0059
0.99216
0.98235
0.98235
0.97647
0.95098
0.94118
0.93725
0.92549
0.93725
0.92549
0.90588
0.90196
0.92549
0.92549
0.92549
0.91176
0.90588
0.91176
0.90588
0.92157
0.91176
0.92549
0.92157
0.92549
0.90588
0.90588
0.91176
0.90196
0.88627
0.85686
0.8451
0.87059
0.91569
0.95098
0.96078
0.98627
0.99608
1.0059
1.002
0.99608
0.93725
0.87059
0.80588
0.8451
0.97059
1.1059
1.1961
1.2078
1.1824
1.1059
1.0725
1.0471
1.0412
1.0275
1.0157
1.0157
1.0157
1.0157
1.0216
1.0216
1.0275
1.0216
0.99608
0.98235
0.99608
1.0216
1.0059
0.98627
1.0059
1.002
0.99216
0.98627
0.97647
0.99608
1.002
1.0157
1.0216
1.0216
1.0373
1.0275
1.0216
1.0471
1.0412
1.0471
1.0275
1.0373
1.0373
1.0471
1.0275
1.0216
1.0275
1.0412
1.0314
1.0412
1.0157
1.0059
1.0118
1.002
1.0118
1.002
0.99608
0.98627
0.97647
0.96667
0.97647
0.95098
0.95686
0.96078
0.96667
0.95098
0.97647
0.95686
0.96667
0.94118
0.92549
0.92157
0.92157
0.90588
0.90196
0.90588
0.89608
0.8902
0.90588
0.92549
0.96078
0.97059
0.97647
0.98235
0.99216
0.97647
0.95098
0.88039
0.7902
0.76667
0.82549
0.96667
1.1118
1.1627
1.1667
1.1275
1.0608
1.0216
0.99216
0.98627
1.002
0.99216
1.002
0.98235
0.98235
0.99608
1.002
0.98235
0.96078
0.99216
0.97647
0.96078
0.97059
0.96667
0.96078
0.97647
0.98235
0.97647
0.97647
0.97647
0.98627
1.0059
1.0216
1.0216
1.0118
1.0275
1.0275
1.0216
1.0157
1.0216
0.99608
0.97647
0.99216
0.98235
0.97647
0.97647
0.96078
0.95686
0.94706
0.95098
0.92549
0.93725
0.93137
0.90588
0.88627
0.88039
0.90588
0.8902
0.87647
0.87059
0.88627
0.87059
0.87647
0.88039
0.86667
0.87059
0.8451
0.85686
0.86078
0.87647
0.88039
0.86667
0.87059
0.86667
0.85686
0.83529
0.81569
0.8
0.78627
0.81569
0.85686
0.88039
0.8902
0.87647
0.86667
0.85686
0.88039
0.8902
0.89608
0.92549
0.94706
1.0824
1.3922
1.5039
1.5039
1.5039
1.0824
0.78039
1.5039
1.5039
1.5039
1.5039
1.5039
1.5039
1.5039
1.5039
1.202
0.68039
0.15882
-0.16275
-0.50196
-0.50196
-0.50196
-0.50196
-0.40196
0.17451
0.41961
0.47451
0.49412
0.50588
0.61961
0.75098
0.85098
0.94118
0.89608
0.73137
0.59608
0.4
0.1549
-0.027451
-0.037255
0.017647
0.13922
0.18824
0.17843
0.22353
0.23922
0.27451
0.38039
0.47451
0.61961
0.74118
0.89608
1.0314
1.1412
1.2824
1.402
1.5039
1.5039
1.5039
1.5039
1.5039
1.5039
1.5039
1.5039
1.5039
1.5039
1.5039
1.5039
1.5039
1.5039
1.4686
1.4333
1.3824
1.3471
1.3216
1.2765
1.2373
1.202
1.1824
1.2078
1.1961
1.2176
1.1922
1.1765
1.1627
1.151
1.1373
1.0725
0.98235
0.90588
0.91569
0.99216
1.1412
1.2118
1.2275
1.1961
1.1216
1.0725
1.0157
0.99216
1.002
0.99608
0.99216
0.99216
0.98627
0.98627
0.97647
0.97647
0.96078
0.95098
0.96078
0.94706
0.96078
0.95098
0.95098
0.92549
0.94706
0.92157
0.92549
0.91569
0.92549
0.92549
0.92549
0.93725
0.94118
0.95686
0.95098
0.94706
0.97059
0.95098
0.94706
0.93137
0.90588
0.92549
0.91176
0.92549
0.92157
0.93725
0.92549
0.92549
0.92157
0.92549
0.90588
0.90196
0.86667
0.85686
0.86667
0.8451
0.82549
0.78627
0.73137
0.66471
0.64118
0.61961
0.61961
0.61961
0.6451
0.66471
0.62941
0.61569
0.59608
0.53922
0.48039
0.42941
0.40392
0.3902
0.46471
0.56078
0.66078
0.74118
0.83137
0.93725
1.0059
1.0373
1.0608
1.0824
1.051
0.97647
0.91569
0.90588
1.0373
1.202
1.3333
1.3725
1.3471
1.298
1.2314
1.2275
1.2176
1.202
1.1824
1.1765
1.1627
1.1627
1.1725
1.1863
1.2275
1.2314
1.2373
1.2216
1.2431
1.2471
1.2314
1.2314
1.2431
1.2569
1.2667
1.2431
1.2529
1.2471
1.2725
1.2765
1.298
1.2922
1.2882
1.2922
1.2569
1.2667
1.2529
1.2275
1.1961
1.1863
1.1627
1.1412
1.1314
1.1412
1.102
1.0765
1.0961
1.0765
1.0569
1.0314
1.0059
1.0157
0.99216
0.98627
0.98235
0.96667
0.97647
0.95686
0.95098
0.96078
0.96667
0.92549
0.92549
0.93725
0.92549
0.94118
0.93137
0.92549
0.90588
0.88627
0.88039
0.86078
0.83529
0.84118
0.8451
0.83137
0.85098
0.8902
0.90588
0.93725
0.95098
0.92549
0.93137
0.92549
0.90196
0.84118
0.76078
0.73137
0.8
0.97059
1.102
1.1373
1.1314
1.0824
1.0275
1.002
0.97647
0.96078
0.95686
0.95098
0.94706
0.94118
0.93725
0.94706
0.92549
0.93725
0.95098
0.95098
0.93725
0.92157
0.91569
0.93137
0.93137
0.91569
0.92549
0.91176
0.90196
0.89608
0.91569
0.93137
0.93725
0.92549
0.96667
0.97059
0.97647
0.97647
0.97647
0.97647
0.98627
0.97059
0.97647
0.96078
0.94706
0.92549
0.94706
0.96667
0.98235
0.95686
0.95098
0.94118
0.93725
0.94118
0.93137
0.94118
0.95098
0.93137
0.94118
0.95098
0.95098
0.91569
0.90588
0.94706
0.93725
0.94706
0.95098
0.94118
0.94118
0.95098
0.94706
0.93725
0.91176
0.90588
0.8902
0.88627
0.8902
0.88039
0.87647
0.91176
0.94118
0.95098
0.97647
0.98235
0.99608
0.98627
0.98235
0.94706
0.91569
0.82549
0.80588
0.91176
1.0725
1.1765
1.2078
1.1922
1.151
1.0725
1.0471
1.0275
1.0373
1.0216
1.0275
1.0216
1.002
1.0216
1.002
1.0216
1.0216
1.0314
1.0275
0.99608
1.0059
1.0157
1.002
1.002
1.0059
1.002
0.97647
0.99608
1.0118
0.97647
0.98627
1.002
1.0157
1.0118
1.002
1.0412
1.0471
1.0412
1.0471
1.0216
1.0373
1.0471
1.0373
1.0216
1.0216
1.0216
1.0157
0.98627
1.0216
1.0118
1.0059
0.99608
0.97647
0.99608
1.002
0.97647
0.96078
0.97647
0.98235
0.96667
0.97647
0.97647
0.99216
0.99608
0.98235
1.0059
1.0118
0.98235
0.97647
0.97647
0.95098
0.95098
0.93725
0.92157
0.92549
0.92549
0.93725
0.98235
1.0118
1.0314
1.0216
1.0314
1.0608
1.0667
1.0275
0.98235
0.90588
0.83529
0.88627
1.002
1.1725
1.2529
1.2431
1.2216
1.1569
1.1176
1.1118
1.0667
1.051
1.051
1.0667
1.0725
1.0667
1.0471
1.0667
1.0765
1.0824
1.0863
1.0922
1.0608
1.051
1.051
1.0471
1.0608
1.0471
1.0216
1.0275
1.051
1.0608
1.0667
1.0608
1.0725
1.0569
1.0725
1.0824
1.0863
1.0765
1.0824
1.0569
1.0667
1.0725
1.0608
1.051
1.0471
1.0667
1.0471
1.0471
1.0471
1.0314
1.0216
1.0118
1.002
1.002
1.002
1.0059
0.99608
1.0059
0.97647
0.99216
0.97647
1.002
0.97059
0.97647
0.96667
0.95686
0.95098
0.97059
0.95686
0.96078
0.94706
0.92549
0.92549
0.92157
0.91569
0.91176
0.92157
0.94706
0.97059
0.99608
1.002
1.0216
1.0314
1.0412
1.0216
0.97647
0.92549
0.83137
0.82549
0.92157
1.0765
1.1667
1.202
1.1922
1.1275
1.0667
1.0471
1.0471
1.0118
1.002
1.002
1.0059
0.99608
0.97647
0.97059
0.97059
0.97059
0.97647
0.97647
0.97059
0.96667
0.97059
0.97647
0.97059
0.95686
0.98235
0.99216
0.98627
0.99216
0.99608
1.002
1.002
1.0059
1.0157
1.0216
1.0157
1.0412
1.0412
1.0275
1.0216
1.0157
1.0118
1.0314
1.0118
1.002
1.0059
1.0157
1.002
1.0157
1.002
0.99608
0.98235
0.97059
0.96078
0.99216
0.98235
0.97647
0.99216
0.98627
0.98235
0.97647
0.99608
1.002
0.99216
0.97647
0.98627
0.99608
0.99608
0.99216
0.97647
0.97647
0.97059
0.96667
0.97059
0.96078
0.93725
0.93137
0.91569
0.95686
0.98627
0.99608
1.002
0.99216
1.0118
1.0157
1.002
0.96078
0.88627
0.81569
0.7902
0.88627
1.0216
1.151
1.1863
1.1765
1.1314
1.0961
1.0725
1.0471
1.0314
1.0275
1.0216
1.0216
1.0059
1.0157
0.99608
0.99216
1.0059
1.0216
1.0118
1.002
1.0118
1.0216
0.99216
0.98627
1.0059
1.002
1.0059
0.98627
0.99608
0.99216
1.0059
1.0118
1.0216
1.002
1.0314
1.0412
1.0118
1.0216
1.0314
1.0275
1.0216
1.002
1.0059
1.002
1.0059
0.99608
0.99216
1.0059
0.97647
0.97647
0.96667
0.99216
1.002
1.002
1.002
1.002
0.99608
0.98235
0.98235
0.98627
0.98235
0.98627
0.96667
0.98627
0.98235
0.99608
0.97647
1.0118
0.99216
0.97059
0.96078
0.95098
0.95098
0.93137
0.93725
0.91569
0.90588
0.90196
0.95098
0.96078
0.95686
0.98627
0.99608
0.99216
1.002
1.002
0.95686
0.87059
0.80588
0.8451
0.97059
1.1118
1.2078
1.2078
1.1824
1.102
1.0608
1.0471
1.0314
1.0157
1.0118
0.99608
1.0118
1.002
0.98235
0.99608
1.002
1.0059
0.97647
0.97059
0.99608
1.002
1.002
1.002
0.99216
0.98627
0.97647
0.98235
0.98627
0.98235
0.98627
1.002
0.98627
1.0118
1.0157
1.0373
1.0373
1.0275
1.0216
1.0059
1.0216
1.0314
1.0216
1.0216
1.0118
1.0157
1.0118
1.002
1.002
0.99608
0.99216
0.98627
1.002
1.0059
0.98627
0.97647
0.97647
0.95686
0.96667
0.95098
0.95098
0.96078
0.95098
0.97647
0.96667
0.95686
1.002
0.98235
0.97647
0.97059
0.95098
0.95686
0.93137
0.92157
0.91176
0.90588
0.90588
0.92549
0.95098
0.97059
0.99608
1.002
1.002
1.002
1.0059
0.98627
0.93137
0.8902
0.83137
0.8902
1.0275
1.1569
1.2275
1.2176
1.1922
1.1118
1.0667
1.051
1.0275
1.0275
1.0216
1.0412
1.0275
1.0157
1.0118
1.0216
1.0059
1.0118
1.002
1.0275
1.0216
1.0275
0.99608
1.002
1.002
1.0157
0.99608
0.99608
1.002
0.98627
0.98235
1.0216
1.0314
1.0118
1.0216
1.0275
1.0471
1.051
1.0412
1.0373
1.0216
1.0216
1.002
1.002
1.0059
1.002
1.0059
0.97647
0.98627
1.002
0.97647
0.99216
0.97059
0.96667
0.95686
0.96667
0.97059
0.96078
0.95686
0.95686
0.95098
0.96667
0.95098
0.96078
0.97647
0.97647
0.95686
0.95098
0.95686
0.94706
0.93137
0.92549
0.91569
0.90588
0.89608
0.91569
0.88627
0.92157
0.96667
0.98235
0.97647
0.99608
0.99608
1.002
0.97647
0.92157
0.86078
0.8
0.7902
0.91569
1.0608
1.1569
1.1824
1.1667
1.1176
1.0824
1.0569
1.0275
1.0216
1.0157
1.002
1.002
0.99608
0.98627
0.99216
1.0059
1.002
0.99608
0.97647
1.002
1.0118
0.99608
0.97059
0.97059
0.97647
0.97059
0.95686
0.97059
0.96667
0.97059
1.002
1.002
0.97647
0.99216
0.99216
1.0118
1.0059
1.0059
1.002
1.002
1.002
0.98235
0.98235
0.96078
0.96078
0.97059
0.94706
0.97647
0.96078
0.96667
0.95686
0.96078
0.95686
0.96078
0.96667
0.94706
0.94706
0.95098
0.92549
0.94706
0.95686
0.94706
0.97059
0.96078
0.95686
0.96078
0.97059
0.95686
0.95098
0.96078
0.95098
0.92549
0.91569
0.90588
0.91569
0.90588
0.88627
0.90588
0.93137
0.95098
0.96078
0.96667
0.99608
1.0157
0.99608
1.002
0.96078
0.91569
0.81569
0.7902
0.87647
1.0314
1.1412
1.1961
1.1824
1.1314
1.051
1.0471
1.0412
1.0314
1.0216
1.0216
1.0275
1.002
0.99608
0.97647
0.97647
0.98235
0.97647
0.97647
0.96078
0.96667
0.97647
0.98627
0.98627
0.97059
0.98235
0.97059
0.98627
0.97059
0.98627
0.99216
0.99608
0.98235
1.002
1.0059
1.0157
1.002
1.0059
1.002
1.0118
0.99216
0.98235
0.98627
0.94706
0.95686
0.96667
0.97647
0.95098
0.94706
0.95686
0.94706
0.92549
0.95098
0.95686
0.94706
0.95098
0.93137
0.95098
0.95098
0.94706
0.95098
0.94706
0.93725
0.95098
0.95098
0.95098
0.95098
0.94118
0.94706
0.95098
0.94706
0.92549
0.90588
0.8902
0.89608
0.88039
0.87647
0.8902
0.92549
0.96667
0.97647
0.99216
0.98235
0.99608
0.98235
0.97059
0.93137
0.86667
0.81176
0.86667
0.99608
1.1314
1.1961
1.1922
1.1569
1.0863
1.051
1.0059
0.99608
0.98627
1.002
1.0118
1.002
0.97647
0.99608
1.002
0.98627
0.97647
0.99216
0.98235
0.99216
0.97059
0.99216
0.97647
0.97647
0.96667
0.96078
0.97059
0.96667
0.97059
0.95686
0.96078
0.98235
1.002
1.0118
0.99216
1.0157
1.0216
1.002
1.002
0.97647
0.97647
0.97059
0.97647
0.97647
0.97647
0.97059
0.95098
0.96078
0.97059
0.95098
0.95098
0.95686
0.95098
0.94118
0.95098
0.92549
0.94706
0.94118
0.93725
0.92549
0.94706
0.95098
0.94706
0.96667
0.96667
0.96078
0.96667
0.96667
0.95098
0.95098
0.92549
0.92157
0.93137
0.92549
0.93137
0.91569
0.93725
0.97647
0.98235
1.002
1.0118
1.0059
1.0157
0.98627
0.99216
0.93725
0.86667
0.7902
0.8451
0.94118
1.0863
1.1725
1.1824
1.1314
1.0725
1.0412
1.002
0.97647
0.98235
0.98627
0.97647
0.98235
0.97647
0.97059
0.95686
0.96078
0.95098
0.96078
0.95098
0.96078
0.95686
0.96078
0.94118
0.94706
0.92549
0.93137
0.92549
0.93137
0.92549
0.92549
0.91569
0.93725
0.94118
0.93725
0.94118
0.93137
0.93725
0.94118
0.92549
0.93725
0.92549
0.93725
0.94706
0.92157
0.91569
0.94706
0.95098
0.93725
0.92549
0.92549
0.91569
0.92157
0.90196
0.90588
0.92549
0.92549
0.95098
0.95098
0.94118
0.93725
0.94706
0.94706
0.93725
0.93137
0.94706
0.95686
0.97059
0.94706
0.93725
0.95098
0.94706
0.93137
0.91569
0.90588
0.88627
0.86667
0.86078
0.93725
0.95098
0.95686
0.95098
0.99608
0.98627
0.99216
0.96078
0.90588
0.8451
0.79608
0.85686
0.99608
1.102
1.1667
1.1725
1.1216
1.0725
1.0373
0.99608
0.98235
1.002
0.97647
0.97059
0.95098
0.95686
0.96078
0.94706
0.95098
0.94118
0.92549
0.94118
0.94118
0.96667
0.96078
0.97647
0.94706
0.94118
0.96667
0.98235
0.97647
0.96667
0.97059
0.96078
0.99216
0.98235
0.99608
0.98627
1.0118
1.002
1.002
1.002
0.98627
0.99216
0.98235
0.97059
0.96078
0.98627
0.97647
0.97647
0.97059
1.002
1.002
0.98235
0.99608
1.002
1.0059
1.002
1.0118
1.0216
1.0059
1.0118
0.99608
1.0059
0.98627
0.99216
0.97059
0.97059
0.97647
0.95098
0.97647
0.95098
0.93725
0.92157
0.91569
0.91176
0.90196
0.90588
0.8902
0.88627
0.88039
0.91176
0.93137
0.96078
0.97647
0.96667
0.97647
0.98627
0.99608
0.92157
0.87647
0.81176
0.84118
0.93137
1.0667
1.1667
1.1863
1.1667
1.102
1.0608
1.0373
1.0157
0.98627
1.002
0.97647
0.98235
0.97647
0.97059
0.96667
0.97647
0.96078
0.97059
0.97647
1.0118
1.0216
1.0216
1.0314
1.0216
1.002
1.0118
1.002
1.0059
1.0059
1.0216
1.002
1.0216
1.0373
1.0157
1.0216
1.0216
1.0275
1.0314
1.0059
1.0118
1.0216
0.99216
1.002
0.98235
0.97647
0.97059
0.95686
0.94706
0.92549
0.94118
0.94706
0.92549
0.93137
0.91176
0.94706
0.94118
0.94118
0.92549
0.93725
0.94706
0.95098
0.93725
0.95098
0.93725
0.93137
0.94706
0.95098
0.95686
0.95686
0.93137
0.92549
0.90588
0.89608
0.89608
0.86078
0.85686
0.87059
0.85686
0.88627
0.90588
0.93137
0.92549
0.97647
0.99608
0.97647
0.98627
0.93725
0.87647
0.80588
0.7902
0.91176
1.051
1.1725
1.1863
1.1471
1.102
1.0471
1.0118
0.99608
0.97059
0.97647
0.96078
0.95098
0.95686
0.95098
0.94706
0.95686
0.95098
0.95098
0.92549
0.94706
0.95098
0.93137
0.92549
0.92157
0.90588
0.90588
0.92549
0.91176
0.90588
0.91569
0.92549
0.93725
0.95098
0.95686
0.97647
0.98235
0.97059
0.97647
0.97647
0.96078
0.95098
0.93137
0.94118
0.91569
0.95098
0.92157
0.91569
0.93725
0.91569
0.93725
0.91569
0.91176
0.92549
0.91569
0.90588
0.89608
0.90196
0.90588
0.88039
0.88039
0.90588
0.91569
0.91176
0.91569
0.90588
0.91176
0.90588
0.92549
0.91176
0.90588
0.8902
0.85686
0.88039
0.8902
0.87647
0.85686
0.86078
0.88627
0.92157
0.94118
0.95098
0.96078
0.97647
0.98627
0.97059
0.93725
0.89608
0.8
0.76667
0.87647
1.0373
1.1569
1.1863
1.1765
1.1471
1.0725
1.0157
0.99216
0.97647
0.97647
0.99608
1.0118
0.97647
0.98235
0.99216
0.98235
0.97647
0.96667
0.97647
0.97647
0.96667
0.95686
0.99216
0.98235
0.96667
0.97647
0.97647
0.95686
0.96667
0.97647
0.98627
0.99216
1.002
0.99608
1.0118
1.0157
1.0275
1.0157
1.0118
1.0216
1.0314
1.0157
1.002
0.99216
0.99608
1.002
0.97647
0.99608
1.002
0.97647
0.98235
0.96078
0.97647
0.96667
0.97647
0.93725
0.93137
0.95098
0.94118
0.97647
0.97059
0.95686
0.97647
0.95686
0.97647
0.97647
0.98235
0.97059
0.95098
0.93137
0.92549
0.94706
0.90588
0.91569
0.92157
0.91569
0.90196
0.93725
0.96667
0.98627
1.002
0.99216
0.98627
1.0157
1.0216
0.98235
0.91176
0.82157
0.7902
0.89608
1.0667
1.1765
1.2118
1.1667
1.1471
1.1216
1.0863
1.0725
1.0373
1.0216
1.0275
1.0314
1.0216
1.0216
1.0059
1.0216
0.99608
1.0216
1.0314
1.0216
1.0275
1.0118
1.0157
1.002
0.99608
1.002
0.97059
0.98235
0.97647
0.99608
0.99216
1.0059
1.0157
1.0275
1.0471
1.0314
1.0373
1.0373
1.0216
1.0157
1.002
1.0157
1.002
1.0157
1.0059
1.002
1.0118
0.99216
0.97647
0.97647
0.96078
0.97059
0.97647
0.96667
0.97059
0.96667
0.98627
0.95686
0.97647
0.97647
0.96078
0.95686
0.96078
0.96667
0.97647
0.97647
0.95686
0.94706
0.96667
0.97647
0.95686
0.95098
0.96078
0.94706
0.92549
0.93137
0.91569
0.90588
0.91176
0.95686
0.97059
0.99216
1.002
1.0059
0.98235
0.97059
1.002
0.93137
0.87647
0.81569
0.8451
0.97059
1.102
1.1922
1.2118
1.1627
1.1059
1.0667
1.0275
1.0314
1.0373
1.0157
1.0216
1.0118
1.0216
1.0373
1.0216
1.002
0.99608
0.99216
1.0216
0.99608
1.002
1.0118
1.002
0.98627
0.97647
0.97647
0.99608
0.97647
0.98627
0.99608
0.97059
1.0118
1.0157
1.0216
0.99608
1.0157
1.0059
1.0314
1.0216
1.0157
1.002
1.002
0.99216
0.99608
1.0059
0.98627
0.96078
0.99216
0.97647
0.98235
0.95686
0.96078
0.95098
0.95098
0.97647
0.96667
0.97059
0.97647
0.97059
0.95098
0.96078
0.95686
0.96667
0.95686
0.97647
0.96078
0.95098
0.95686
0.97059
0.97647
0.94706
0.91569
0.92549
0.90588
0.8902
0.90196
0.88039
0.88039
0.91569
0.94118
0.95098
0.97059
0.98627
0.97059
0.95098
0.99608
0.95098
0.87647
0.7902
0.83529
0.89608
1.0608
1.1667
1.1863
1.1373
1.0824
1.0314
1.002
0.99216
0.97059
0.97647
0.98235
0.97059
0.96667
0.97647
0.95098
0.95686
0.96078
0.95686
0.95098
0.94706
0.97059
0.97647
0.95098
0.95098
0.95098
0.95686
0.94118
0.92549
0.93137
0.94118
0.94118
0.95098
0.94706
0.99216
0.99608
0.97647
1.002
0.98627
1.002
0.96667
0.97059
0.96667
0.94118
0.92549
0.95098
0.97647
0.96078
0.94706
0.93725
0.94118
0.92157
0.92157
0.92157
0.93137
0.92549
0.93137
0.94118
0.93137
0.91569
0.92549
0.91569
0.92549
0.90196
0.92549
0.92549
0.92549
0.93137
0.95098
0.93725
0.92549
0.91176
0.90196
0.90588
0.89608
0.88627
0.88627
0.86667
0.87059
0.92549
0.96667
0.98627
1.002
0.99216
1.002
0.98627
0.97059
0.91176
0.84118
0.80588
0.8451
0.99608
1.1471
1.202
1.1824
1.1412
1.0824
1.0275
0.99216
0.98627
1.002
0.97647
0.96667
0.99216
1.002
0.98627
0.97059
0.99608
1.002
0.97647
0.95686
0.95098
0.96078
0.95686
0.97647
0.96078
0.97647
0.98235
0.98627
0.97059
0.97647
0.99216
1.002
0.99608
1.0059
1.002
1.0314
1.0216
1.0275
1.0314
1.002
1.0216
1.0059
1.0118
1.002
0.99608
0.99608
0.96667
0.96078
0.96078
0.94118
0.93725
0.98235
1.002
0.98627
1.002
0.97647
0.97647
0.98627
0.99216
0.98235
0.97647
0.96667
0.98235
0.97059
0.99216
0.98627
1.0216
1.0118
0.99608
0.97059
0.95098
0.95098
0.92549
0.93137
0.91569
0.90588
0.89608
0.92157
0.95098
0.95686
0.97059
0.96667
0.97647
0.98235
0.96667
0.94118
0.88627
0.7902
0.77059
0.82549
0.97059
1.1314
1.1922
1.2118
1.1765
1.1314
1.0961
1.0725
1.0373
1.0314
1.0412
1.0373
1.0216
1.0216
1.0059
0.98235
0.99608
0.97647
0.97059
0.97059
0.97647
0.96078
0.97059
0.98235
0.97059
0.97647
0.97647
0.98627
0.98627
0.99608
1.0216
1.0216
1.0471
1.0765
1.0863
1.0824
1.1059
1.0961
1.0725
1.0765
1.0824
1.0608
1.0471
1.0412
1.0216
1.0275
1.0216
1.0118
1.002
0.99608
1.002
0.99216
0.96667
0.98235
0.98627
0.97647
0.95686
0.97059
0.96078
0.95098
0.96078
0.92157
0.93137
0.92549
0.93725
0.90196
0.89608
0.93725
0.92549
0.91176
0.92157
0.92549
0.92549
0.93137
0.92549
0.94706
0.95098
0.92157
0.95098
0.95686
0.98627
1.0216
1.0373
1.0275
1.0412
1.002
1.0157
1.0216
0.93137
0.85098
0.81569
0.85098
0.99608
1.1314
1.1627
1.1471
1.0824
1.0314
1.002
0.94118
0.91569
0.94118
0.96667
0.98235
0.99608
0.99216
0.99608
1.0059
1.0157
1.002
1.0059
1.051
1.0314
1.0471
1.0569
1.0471
1.0569
1.0314
1.0314
1.0275
1.051
1.0471
1.0373
1.0667
1.0824
1.0725
1.102
1.0922
1.1118
1.1275
1.1176
1.1118
1.1059
1.102
1.0765
1.0725
1.0863
1.0667
1.0471
1.0471
1.0157
0.98627
0.98235
0.97647
0.96078
0.94706
0.94118
0.91176
0.90588
0.89608
0.90588
0.88039
0.88627
0.87059
0.85686
0.86667
0.88039
0.88627
0.89608
0.8902
0.88627
0.90196
0.92549
0.91569
0.89608
0.88627
0.92157
0.91569
0.90588
0.90588
0.90196
0.87647
0.91569
0.95098
0.97059
0.95098
0.98235
0.98235
0.97647
0.99216
0.96078
0.90588
0.81176
0.7902
0.89608
1.0412
1.1824
1.2176
1.1627
1.1176
1.0569
1.0373
1.0157
1.002
1.002
1.0118
0.98627
0.97647
1.002
1.0059
0.99608
0.99216
0.99608
0.97647
0.99216
1.002
0.98235
0.96667
0.96078
0.97647
0.96667
0.97059
0.96078
0.97647
0.95686
0.95098
1.002
0.97647
0.99216
0.98627
0.99608
1.0059
0.99608
1.0118
1.002
0.99608
0.98235
0.96667
0.98627
0.97059
0.97647
0.97647
0.97059
0.97647
0.96667
0.95098
0.96078
0.94706
0.97647
0.96078
0.95686
0.97647
0.94706
0.95098
0.93137
0.95098
0.97647
0.96078
0.97059
0.97059
0.96078
0.95098
0.98235
0.97059
0.94706
0.93725
0.94706
0.91569
0.92549
0.92549
0.91569
0.8902
0.90588
0.91176
0.96078
0.98235
0.98627
0.99608
1.0059
1.0216
1.0275
0.97059
0.91569
0.8451
0.81569
0.88039
1.0275
1.1471
1.2118
1.2078
1.1569
1.0725
1.0725
1.0412
1.0157
1.0118
0.99608
1.0157
1.0216
1.0157
1.0216
1.0059
1.0118
0.98627
1.002
1.0118
1.0059
0.97647
0.98627
1.002
0.99608
0.97647
0.99216
1.002
0.98235
0.99216
0.98235
1.0157
1.0216
1.0059
1.0216
1.0314
1.051
1.0471
1.051
1.051
1.0314
1.0275
1.0471
1.0118
1.0471
1.0314
1.0216
1.0216
1.0118
1.0118
1.002
0.99608
1.002
0.97647
0.99608
1.002
0.98235
0.97647
0.99216
0.97647
0.97647
0.98627
0.97059
0.98235
0.99608
1.0059
0.99216
1.002
0.98627
0.97059
0.95686
0.95098
0.95098
0.91176
0.93137
0.94118
0.92549
0.92157
0.94118
0.97647
0.99216
0.98627
1.002
1.0118
1.0059
1.0157
0.98627
0.93725
0.85098
0.82157
0.86667
1.0157
1.1627
1.2176
1.2314
1.1961
1.1275
1.102
1.0765
1.0471
1.0275
1.0216
1.0471
1.0569
1.0314
1.0373
1.0314
1.0471
1.0275
1.0471
1.051
1.0471
1.0608
1.0471
1.0412
1.0059
1.0216
1.0471
1.0216
1.0275
1.0216
1.0412
1.0373
1.0314
1.0569
1.0725
1.0725
1.0471
1.0608
1.0725
1.0725
1.0765
1.0608
1.0471
1.0373
1.0118
1.0157
1.0275
1.0412
1.0412
1.0118
1.002
1.0157
0.99608
1.0118
1.0157
1.002
1.0059
0.99608
0.99216
0.98235
0.99608
0.97059
0.97647
1.002
0.99608
1.002
0.98627
0.98235
1.002
1.0157
0.98627
0.99216
0.95686
0.96667
0.95098
0.94706
0.96667
0.94706
0.92549
0.88627
0.93137
0.95686
0.99608
1.002
1.0216
1.0373
1.0275
1.002
0.99216
0.92549
0.85686
0.7902
0.84118
0.97059
1.1216
1.2118
1.2118
1.1863
1.1412
1.1059
1.0608
1.0412
1.0216
1.002
1.0216
1.0157
1.002
1.0275
1.002
1.0216
1.0275
1.0118
1.0059
1.002
1.0157
1.002
1.0157
1.0118
1.0118
1.0059
0.99608
0.98627
1.0118
1.0216
1.0275
1.0216
1.0471
1.0216
1.0569
1.0608
1.0216
1.051
1.0471
1.0216
1.0373
1.0216
1.0157
1.002
1.002
0.99216
1.0275
1.0118
1.0157
0.98627
0.99608
0.96078
0.95098
0.97647
0.99608
0.98627
0.97647
0.96667
0.96078
0.98235
0.97647
0.96667
0.97059
0.93725
0.96667
0.96667
0.95686
0.97059
0.95098
0.95686
0.96667
0.95098
0.94118
0.95098
0.92157
0.90588
0.89608
0.86667
0.87647
0.86667
0.92549
0.95098
0.96078
0.95098
0.96078
0.97059
0.98235
0.93137
0.87059
0.79608
0.77059
0.8451
0.99608
1.1373
1.1824
1.151
1.1216
1.0412
0.99608
0.97647
0.97647
0.97059
0.94706
0.93137
0.95686
0.96667
0.97647
0.94706
0.95098
0.94118
0.93137
0.95686
0.94706
0.95686
0.93725
0.94706
0.93725
0.91176
0.90588
0.92157
0.90588
0.91176
0.92157
0.94118
0.95098
0.97059
0.97647
0.98627
0.97647
0.98235
0.98235
0.97647
0.94706
0.93725
0.97059
0.96078
0.96667
0.95098
0.95098
0.94118
0.95098
0.93725
0.92157
0.90196
0.89608
0.93725
0.92157
0.91569
0.91176
0.92549
0.93137
0.92549
0.92157
0.91569
0.90588
0.92157
0.90588
0.93725
0.94706
0.95098
0.94118
0.95098
0.92549
0.92549
0.90196
0.88627
0.88627
0.87647
0.86078
0.87059
0.85686
0.92157
0.93725
0.95686
0.97647
0.98235
0.99216
0.97647
0.98235
0.91569
0.82549
0.78627
0.82549
0.92549
1.102
1.1863
1.1725
1.1471
1.0824
1.0412
1.0118
1.0059
0.98235
0.97647
0.97059
0.97647
0.95686
0.97647
0.98627
0.96667
0.95098
0.97647
0.95686
0.95098
0.93725
0.97059
0.96078
0.96667
0.95098
0.95686
0.94706
0.93725
0.95098
0.95098
0.95098
0.97647
0.97647
0.99216
0.97647
1.0157
1.0118
1.002
0.98627
1.002
1.002
1.002
0.97059
0.96667
0.98235
0.96667
0.97647
0.95098
0.96667
0.94118
0.96078
0.94706
0.94706
0.95098
0.92549
0.90588
0.92157
0.93137
0.93137
0.92157
0.8902
0.88627
0.8902
0.86667
0.85686
0.85098
0.88039
0.88039
0.90196
0.92157
0.94118
0.96667
0.97059
0.94118
0.94706
0.90196
0.83137
0.78039
0.80588
0.91176
1.0275
1.1216
1.1627
1.1314
1.0725
1.0471
1.002
0.97647
0.97059
0.96667
0.98235
0.96078
0.97647
0.98235
0.97059
0.97647
0.95098
0.97059
0.96667
0.97059
0.98235
0.98627
0.95098
0.96078
0.95098
0.97059
0.96078
0.95098
0.96667
0.95098
0.97647
0.97647
0.97647
0.97059
0.97059
0.98235
0.97059
1.002
0.99608
0.98627
0.98235
0.97059
0.97059
0.94706
0.95098
0.96667
0.95098
0.96667
0.94118
0.95098
0.94706
0.95686
0.96667
0.96078
0.97059
0.95686
0.94118
0.96078
0.97059
0.95686
0.95686
0.97059
0.96667
0.96667
0.97059
0.97647
0.97647
0.95686
0.96078
0.95098
1.002
0.97647
0.97647
0.96667
0.94118
0.99216
1.002
0.97059
0.97647
0.96667
0.97647
0.95098
0.94118
0.91569
0.90588
0.92157
0.91176
0.87647
0.90196
0.92157
0.95686
0.97059
0.96667
0.98627
0.99216
0.98627
1.0157
0.99608
0.93137
0.8451
0.81569
0.87059
0.99608
1.1314
1.1863
1.202
1.151
1.0824
1.0471
1.0608
1.0216
1.0157
0.98235
1.002
0.98627
0.99216
0.97647
0.98235
0.97647
0.99216
0.96078
0.98627
0.97647
0.98627
0.97647
0.98235
0.97647
0.97059
0.97647
0.97059
0.98235
0.97647
0.97059
0.99216
1.002
1.0157
1.0118
1.0275
1.0412
1.0471
1.0216
1.0373
1.0314
1.002
1.002
1.0157
0.99608
0.96078
0.99216
0.99608
0.98235
0.96078
0.93725
0.95686
0.96078
0.97647
0.96078
0.94706
0.95098
0.95098
0.95098
0.95098
0.92549
0.92549
0.94706
0.96078
0.94118
0.93137
0.96667
0.95098
0.95686
0.96667
0.94706
0.96078
0.97059
0.98235
0.94706
0.92549
0.90588
0.89608
0.88039
0.87059
0.90588
0.91569
0.94118
0.96667
0.98627
0.99216
0.98627
0.99608
1.002
0.91569
0.86078
0.8
0.84118
0.96667
1.102
1.1627
1.1725
1.1216
1.0725
1.0275
1.0118
0.99216
0.98627
0.98235
0.96667
0.95686
0.97059
0.95098
0.94118
0.94118
0.95098
0.92549
0.96078
0.95098
0.95686
0.96667
0.94706
0.94706
0.95098
0.93725
0.93137
0.94706
0.95098
0.93725
0.91569
0.96078
0.97647
0.97647
0.98627
0.99608
0.98627
0.96667
0.99216
1.002
0.97647
0.94706
0.95098
0.96667
0.97059
0.95098
0.94706
0.95686
0.95098
0.92549
0.91569
0.92549
0.92549
0.93137
0.92549
0.95098
0.95098
0.92157
0.92549
0.94118
0.93725
0.95098
0.96078
0.96667
0.94706
0.92549
0.94118
0.93725
0.96667
0.94706
0.97647
0.95686
0.93725
0.94118
0.93137
0.92157
0.90588
0.90588
0.88627
0.85686
0.84118
0.88627
0.92157
0.94118
0.98235
0.99216
0.97647
0.98627
0.97647
0.97059
0.92157
0.83137
0.78039
0.82157
0.94706
1.1059
1.1824
1.1863
1.1569
1.0824
1.0373
1.0216
0.99608
0.97647
0.97059
0.98627
0.99608
0.98235
0.97647
0.96667
0.97647
0.97647
0.98235
0.97647
0.97059
0.97647
0.97647
0.98627
0.94706
0.96078
0.96667
0.97647
0.95686
0.94706
0.93137
0.97059
0.95686
0.97059
1.002
1.0157
1.0118
0.98627
1.0275
1.0157
1.0059
0.98235
0.99608
0.98627
0.97647
0.99608
0.99216
0.95686
0.95098
0.96078
0.97059
0.96078
0.95686
0.96078
0.95098
0.96667
0.95098
0.95686
0.92549
0.95098
0.95098
0.95098
0.93725
0.93137
0.93725
0.95098
0.95098
0.95686
0.96667
0.93725
0.96078
0.94706
0.97059
0.92549
0.92157
0.91176
0.90588
0.91176
0.8902
0.90196
0.92157
0.93137
0.95098
0.97059
0.99216
0.99608
1.002
0.99608
1.0118
0.92549
0.85686
0.81569
0.85686
0.97647
1.1373
1.2078
1.2176
1.1471
1.0863
1.0667
1.0216
0.99608
1.002
0.99216
1.002
0.97647
0.99608
1.002
0.99608
0.98627
0.98235
0.98627
0.97647
0.97647
0.97647
0.97647
0.97647
0.96667
0.96078
0.95686
0.97647
0.96078
0.94118
0.96667
0.95686
0.97647
0.99608
1.002
0.98235
1.0157
1.0118
1.0314
1.0373
1.0118
1.002
0.99608
1.0118
0.97647
0.99216
0.99216
0.98627
0.99216
0.98235
0.95098
0.95098
0.93137
0.97647
0.96667
0.95098
0.95686
0.95098
0.94706
0.95686
0.95098
0.94706
0.93725
0.95098
0.95686
0.97059
0.95098
0.97059
0.97647
0.97059
0.96667
0.94706
0.96667
0.94706
0.91569
0.92549
0.92549
0.90588
0.89608
0.90588
0.94706
0.94118
0.98235
0.99216
0.97647
1.002
1.002
0.97647
0.93725
0.87059
0.78627
0.82157
0.94118
1.0725
1.1863
1.2078
1.1863
1.1314
1.0961
1.0667
1.0471
1.0412
1.0216
1.002
1.0314
1.0275
1.0216
1.0059
1.002
1.0275
1.002
1.0059
1.0118
1.002
0.98627
1.0059
1.002
1.002
0.98627
0.97647
1.002
1.0059
0.99216
0.98235
0.99608
1.0157
1.0275
1.0059
1.0471
1.0373
1.0412
1.0373
1.0569
1.0373
1.0275
1.0275
1.0157
0.99216
1.002
0.99608
1.0157
1.0216
0.98627
0.98235
1.002
1.0118
0.98627
1.002
0.99608
1.002
0.97647
0.98627
0.99608
0.99216
0.98627
1.002
1.0059
0.99608
0.99216
1.0059
0.99608
1.0059
1.002
1.0118
1.0157
1.002
1.0216
0.99216
0.98627
0.95686
0.95686
0.95098
0.93725
0.92157
0.91176
0.90196
0.93725
0.94118
0.97059
0.99608
1.0118
1.0216
1.0275
1.0157
0.98627
0.93725
0.84118
0.80588
0.87059
1.0157
1.1725
1.2216
1.2118
1.151
1.1118
1.0863
1.0569
1.0412
1.0216
1.0157
0.99608
1.0157
0.99216
0.99608
0.98235
0.97059
0.98235
1.002
0.99608
1.002
0.98627
0.99216
0.97647
0.96667
0.97647
0.96667
0.97059
0.96078
0.95686
0.97647
0.97647
0.98627
1.0059
1.0157
1.0059
1.0157
1.0157
1.0275
1.0118
1.002
1.0275
1.0275
1.0314
1.0118
1.0118
1.002
1.002
1.0059
1.002
1.0118
0.99216
0.97059
0.95098
0.99608
1.002
0.99216
0.97647
0.98627
0.99216
0.98235
0.98627
1.002
1.002
1.002
1.0059
0.99608
1.002
0.98235
0.97647
0.99216
0.98627
0.99608
0.96667
0.95098
0.92157
0.92549
0.8902
0.88039
0.88627
0.86078
0.85686
0.8902
0.90588
0.93725
0.94706
0.93725
0.95098
0.95098
0.95098
0.91176
0.8451
0.76667
0.8
0.8902
1.051
1.1412
1.1667
1.1725
1.0863
1.0275
0.99608
0.96667
0.98627
0.99216
0.98627
0.98627
0.95686
0.95098
0.97059
0.97647
0.94706
0.92549
0.94706
0.96078
0.97059
0.98235
0.96667
0.97059
0.95098
0.94118
0.92549
0.92157
0.88039
0.89608
0.8902
0.87647
0.89608
0.92157
0.95686
0.95098
0.99608
1.0059
1.0157
1.0059
1.0216
1.0059
1.002
1.0059
0.99216
0.96667
0.93725
0.93137
0.97059
1.0157
1.1412
1.202
1.2216
1.202
1.102
0.94706
0.8902
0.86078
0.88627
0.92549
0.91176
0.90588
0.93137
0.93725
0.92549
0.94118
0.92549
0.92157
0.91569
0.92549
0.91176
0.89608
0.88627
0.8902
0.88039
0.8902
0.88039
0.87647
0.84118
0.87059
0.88627
0.8902
0.87059
0.88039
0.88039
0.88039
0.90196
0.89608
0.92549
0.93725
0.91176
0.93137
0.95686
0.96667
0.96667
0.95098
0.97059
0.96078
0.95098
0.96667
0.97647
0.94706
0.94706
0.95686
0.94118
0.97647
0.97059
0.97647
0.96078
0.96667
0.96078
0.97059
0.95098
0.94706
0.97059
0.95686
0.92549
0.95686
0.96667
0.97647
0.97059
0.96078
0.96667
0.97059
0.95686
0.97059
0.94706
0.96667
0.97059
0.96667
0.94706
0.96078
0.96667
0.96078
0.95098
0.95098
0.96667
0.94706
0.95686
0.94706
0.92157
0.95686
0.96078
0.94118
0.93137
0.91569
0.90196
0.87647
0.88627
0.90588
0.92157
0.91569
0.95686
0.98235
0.98627
0.99608
0.97647
0.95686
0.88039
0.83137
0.76078
0.78627
0.90196
1.0667
1.1863
1.1863
1.1569
1.0922
1.0373
1.0157
1.002
1.002
0.97647
0.98235
0.97647
0.98235
1.002
1.0059
1.0059
1.002
0.99608
1.002
0.97647
0.97647
0.97059
0.98235
0.95686
0.95098
0.95686
0.97647
0.95686
0.96667
0.97059
0.95686
0.98235
0.97647
1.0059
1.002
0.99216
0.98627
0.98627
0.97059
0.95098
0.95686
0.95098
0.99608
1.002
1.0059
1.002
0.99608
0.98235
0.96078
0.95098
0.96078
0.8451
0.83529
0.95098
1.1314
1.2118
1.1824
1.1314
1.0725
0.99216
0.93725
0.92549
0.95686
0.97059
0.96078
0.96667
0.95686
0.94706
0.95098
0.94706
0.95098
0.94118
0.95098
0.92549
0.92157
0.90588
0.91569
0.89608
0.92549
0.92157
0.92549
0.93725
0.95098
0.96667
0.98235
0.99608
0.99216
0.98235
0.96667
0.96078
0.98235
0.99216
0.99608
0.98235
1.002
1.0059
1.002
0.99608
0.98627
1.002
1.0118
0.99216
1.002
0.96667
0.95098
0.96078
0.96667
0.94118
0.97059
0.96078
0.97647
0.97059
0.96667
0.95098
0.96078
0.93725
0.94706
0.93725
0.95686
0.94118
0.93137
0.95098
0.96078
0.97647
0.95098
0.95686
0.96667
0.97059
0.97647
0.95686
0.95098
0.94706
0.96078
0.95098
0.94706
0.96667
0.94706
0.97059
0.96078
0.97059
0.96667
0.97647
0.94118
0.96667
0.94118
0.95686
0.94706
0.93725
0.92549
0.91569
0.88039
0.8902
0.8902
0.88039
0.90196
0.94118
0.94706
0.97647
0.97647
0.99216
1.002
1.002
0.94118
0.85098
0.75098
0.74118
0.90196
1.0608
1.1863
1.2078
1.1824
1.1059
1.0412
1.0471
1.0059
1.0118
1.002
0.97647
0.96078
0.97647
0.97059
0.99608
1.002
0.98627
0.98235
0.97059
0.97647
0.98627
0.97647
0.98627
0.96667
0.96667
0.93725
0.97059
0.98235
0.97647
0.97059
0.98627
0.97647
0.99608
1.002
1.002
1.0216
1.0373
1.0059
0.97647
1.0412
1.0314
1.0216
1.0118
1.002
0.99608
0.98627
0.98235
0.96078
0.96667
0.97647
0.93137
0.93725
0.94118
0.95098
0.93137
0.93725
0.95098
0.93725
0.93137
0.92549
0.92549
0.92549
0.92157
0.93725
0.94118
0.91569
0.96667
0.97647
0.97059
0.96667
0.97647
0.96667
0.97059
0.95686
0.94118
0.91176
0.92549
0.92157
0.90196
0.8902
0.88627
0.92549
0.94706
0.97647
0.98235
0.99608
1.002
0.99216
0.98235
0.99216
0.90196
0.8
0.77647
0.87059
1.0412
1.1627
1.2118
1.1961
1.1373
1.0765
1.0157
0.97647
1.0216
1.0216
0.99216
0.99608
0.99608
0.98235
0.97647
0.98235
0.99608
0.99216
0.97647
0.97647
0.95686
0.95098
0.95686
0.97647
0.94118
0.98235
0.97647
0.97059
0.97647
0.95098
0.97059
0.98235
0.97059
0.98627
0.97647
1.002
1.0157
1.0157
1.0118
1.0059
1.0216
0.99216
1.002
1.0059
1.002
1.002
0.98627
0.97647
0.96667
0.95686
0.97059
0.98235
0.96078
0.96078
0.94118
0.92549
0.88627
0.96667
0.95686
0.94118
0.96078
0.96667
0.93725
0.95098
0.93725
0.95686
0.95098
0.96078
0.97647
0.95098
0.94706
0.92549
0.93137
0.90196
0.91176
0.90196
0.90588
0.84118
0.90588
0.95686
0.98627
1.002
1.0275
1.0118
1.0118
1.0059
1.002
0.95098
0.88039
0.81176
0.84118
0.92157
1.0863
1.1961
1.2118
1.2078
1.1412
1.0471
1.0569
1.0314
0.99608
1.0275
1.0412
1.0471
1.0216
1.0157
0.99608
0.99216
1.0059
1.0157
1.002
1.0157
1.0059
1.002
1.0059
0.98235
0.98627
0.95686
0.97647
0.98235
0.97059
0.94118
1.002
1.0157
1.0118
1.0157
1.0157
1.0118
1.0157
1.0059
1.0373
1.0471
1.0275
0.99608
1.002
0.98235
0.99216
0.97647
1.002
1.0059
1.0157
1.002
1.0059
1.0118
1.002
0.98235
0.95686
0.94706
0.99608
1.002
0.99216
0.97647
0.96078
0.98235
0.97647
0.96078
0.95098
0.97059
0.95098
0.97059
0.95098
0.93137
0.95098
0.97059
0.97647
0.91176
0.93137
0.94706
0.92549
0.90588
0.91176
0.93137
0.92549
0.96078
0.97059
0.99216
0.97647
0.98627
1.0118
0.98235
0.91569
0.85686
0.80588
0.84118
0.96667
1.1176
1.1863
1.1627
1.1667
1.0961
1.0765
1.0471
1.0314
1.0412
1.0373
1.0216
1.0314
1.0373
1.0157
1.0216
1.002
0.99608
0.99216
1.0157
1.002
0.99216
0.93725
0.99608
0.97059
0.95098
0.92549
0.91569
0.88039
0.90196
0.90588
0.94118
0.98235
0.97647
0.99608
1.0216
1.0314
1.0216
1.0216
1.0118
1.0373
1.0314
1.0216
0.98627
1.0275
1.0216
0.98627
1.002
0.92549
0.88039
0.90196
0.96078
1.1373
1.2118
1.1824
1.1373
1.0725
0.94118
0.90588
0.87059
0.89608
0.94706
0.91176
0.97647
0.97647
0.97059
0.95686
0.97647
0.97059
0.95098
0.95098
0.95098
0.92549
0.94706
0.95098
0.92549
0.91569
0.92549
0.92157
0.91176
0.91569
0.8902
0.95098
0.91176
0.92549
0.94118
0.92549
0.93137
0.92157
0.93725
0.93137
0.94118
0.95686
0.97647
0.98235
0.94706
0.97647
0.93725
0.99216
1.0059
0.99216
0.97647
0.98627
0.99216
0.99216
0.99608
0.98627
1.002
0.98235
1.002
0.98235
0.99608
0.97647
1.0118
1.0216
0.98235
1.0118
1.0157
1.0118
1.0157
1.0275
1.0157
0.99608
0.99216
0.99608
1.0118
0.99608
1.0157
1.0216
1.002
1.002
1.0059
1.0118
0.98627
0.93725
0.93137
0.97647
0.94706
0.95098
0.96078
0.94118
0.91569
0.92549
0.92157
1.002
1.002
1.0216
1.0157
1.0216
1.002
1.0216
0.96078
0.86078
0.83137
0.86078
0.98627
1.1373
1.2176
1.2275
1.1725
1.1275
1.0608
1.0471
1.0471
1.0373
1.0314
1.0412
1.0471
1.0216
1.0275
1.002
1.0608
1.0471
1.0412
1.0216
1.002
1.0216
1.0059
1.002
0.99216
0.98627
0.99608
0.94118
1.0118
1.0157
1.0216
1.0412
1.0373
1.0471
1.0471
1.0608
1.0667
1.0725
1.0725
1.0608
1.0471
0.98627
0.98235
1.0608
1.0471
1.0157
1.002
0.99608
1.0059
0.99608
0.99608
1.002
0.96667
0.97059
0.96078
0.96667
0.95686
0.95098
0.95686
0.94706
0.97059
0.96078
0.98627
0.96667
0.99216
0.99608
1.002
0.98627
0.98235
0.99216
0.98235
0.97059
0.97059
0.95686
0.94706
0.95098
0.93725
0.8902
0.87647
0.94118
0.96078
0.95686
1.0059
1.0118
1.0059
1.0157
1.0373
1.002
0.93137
0.86078
0.83137
0.88627
1.0157
1.1569
1.1922
1.151
1.1863
1.1176
1.0608
1.0471
1.051
1.0373
1.0275
1.0373
1.0216
1.0157
1.0118
1.0157
1.002
0.99608
0.96078
1.0118
0.99608
0.99216
1.0216
0.99216
0.98235
0.99216
0.99216
1.002
0.98235
0.98627
1.002
1.002
1.0157
1.0216
1.0216
0.98235
1.0373
1.0608
1.0314
1.0216
1.002
1.0157
1.0216
1.0059
0.99608
1.0118
1.002
0.97647
0.97059
0.95686
0.97647
0.96667
0.97647
0.94118
0.93725
1.002
0.97647
0.96078
0.95098
0.98235
0.97059
0.96078
0.94118
0.95098
0.96667
0.98235
0.95098
0.95098
0.93137
0.97647
0.94118
0.95686
0.97059
0.92549
0.92157
0.90588
0.92157
0.91176
0.94706
0.95098
0.97647
0.98627
0.94706
0.99608
1.0373
1.0216
0.97647
0.91176
0.83529
0.81176
0.8902
1.0412
1.1667
1.1863
1.1765
1.1314
1.0765
1.0412
1.0275
0.95686
1.0118
1.0314
1.0118
1.0314
1.0157
1.0373
1.0118
1.0059
0.99608
1.002
1.002
0.98627
0.99608
0.99216
0.97647
0.98235
0.95686
0.97647
0.98627
0.98235
0.99216
0.97059
1.002
1.002
1.0118
1.0157
1.0275
1.0216
1.0275
1.0373
1.0216
0.96667
1.0157
1.0216
1.0157
1.0059
1.0118
0.98627
0.98235
1.002
0.97647
0.98627
0.98235
0.96078
0.95098
0.97059
0.95098
0.94706
0.93137
0.91176
0.97059
0.95686
0.95686
0.96078
0.95686
0.96078
0.95098
0.96667
0.95686
0.95686
0.93137
0.92549
0.92157
0.8902
0.85686
0.90588
0.89608
0.8902
0.93725
0.94706
0.97647
0.99216
1.002
1.0118
0.99216
0.96667
0.98627
0.93725
0.8451
0.83529
0.91569
1.0824
1.2078
1.2216
1.202
1.151
1.0863
1.0569
1.0157
1.0059
1.002
1.002
0.98627
1.0314
1.0118
1.0157
1.0216
1.002
0.99608
1.0157
1.0118
1.0157
0.98235
0.97647
0.99216
0.94118
0.99608
0.98235
0.96667
0.97647
0.97059
0.98235
0.98627
0.98235
1.0314
1.051
1.0471
1.0569
1.002
1.0471
1.0373
1.0471
1.0275
1.0412
1.0471
1.0314
1.0118
1.002
1.0216
1.0118
1.0157
0.94118
1.0275
1.0216
1.0314
1.0118
1.002
1.002
1.002
0.98235
0.97059
0.97059
0.96078
0.97647
0.93137
1.0216
1.0157
0.99216
0.99608
0.98235
0.96667
0.94706
0.94706
0.93137
0.91176
0.90196
0.88039
0.94118
0.97059
1.002
1.002
1.0275
1.0471
1.0471
1.0373
0.99608
0.92157
0.84118
0.81569
0.8902
1.051
1.1725
1.2118
1.1569
1.1627
1.1216
1.0824
1.0608
1.0275
1.0373
1.002
1.0157
1.0059
1.002
1.0118
0.99216
1.002
0.97059
0.98627
0.94706
1.002
1.0157
0.99216
0.99216
0.99216
0.97059
0.97647
0.98627
0.96667
0.97647
0.98627
0.97647
0.93725
0.99216
1.0216
1.0118
1.0157
1.0216
1.0373
1.0275
1.0157
1.002
0.99608
0.97059
0.96667
1.002
0.97059
1.0059
0.98627
0.97647
0.99608
1.002
0.98235
0.97059
0.97647
0.96078
0.97059
0.96078
0.97647
0.91569
0.95686
0.97059
0.96667
0.95098
0.92549
0.94706
0.94118
0.94118
0.93725
0.93725
0.91569
0.90588
0.93137
0.94118
0.91569
0.99608
0.98235
0.97647
1.0059
0.99608
0.99216
0.95098
0.86667
0.81569
0.85098
0.94706
1.0824
1.1824
1.202
1.1275
1.1373
1.0608
1.0275
1.0157
1.0059
0.99608
0.98235
1.002
0.97647
0.97059
0.98627
0.95686
0.99216
1.0118
1.0059
0.99216
1.002
0.98627
1.002
0.99216
0.98627
0.97059
0.99216
0.97647
0.98627
0.94706
1.0216
1.0275
0.99608
1.002
0.99608
1.0216
1.0216
1.0216
1.0216
1.0157
1.0118
1.0118
0.99216
0.94706
1.0314
1.002
1.0118
1.002
0.97647
1.002
0.96667
0.96667
0.97647
0.97647
0.97647
0.94118
0.98235
0.99608
0.97647
0.97647
0.98235
0.95686
0.96667
0.96667
0.93725
0.95686
0.96667
0.97059
0.94706
0.92549
0.92549
0.89608
0.92157
0.92549
0.92549
0.90588
0.93137
0.95686
0.99216
1.0059
1.002
1.0118
1.002
0.98627
0.93137
0.87059
0.77647
0.86078
0.94706
1.0863
1.1863
1.1765
1.1667
1.1118
1.0725
1.0412
1.0157
1.0118
1.0216
0.96667
1.002
0.98235
0.96078
1.002
1.0059
1.002
1.002
1.002
0.99216
0.98235
1.002
0.99608
0.97059
0.96078
0.93137
0.97647
0.98235
1.002
0.98235
0.97647
0.99216
1.002
1.002
0.98627
0.94706
1.0275
1.0471
1.0314
1.0373
1.0118
1.002
0.98235
1.002
0.99608
0.97059
0.95686
0.95098
0.95098
0.95098
0.92157
0.88627
0.96078
0.97059
0.97647
0.97059
0.97647
0.96078
0.95686
0.96667
0.95686
0.95098
0.93137
0.93137
0.91569
0.90588
0.87647
0.92549
0.89608
0.8902
0.90196
0.86667
0.85686
0.90588
0.96078
0.95686
0.98627
0.97647
1.002
1.0157
0.95686
0.97059
0.89608
0.81569
0.77647
0.83137
0.98235
1.1275
1.1765
1.1863
1.1118
1.0725
1.0765
1.0275
1.0059
0.99216
0.99608
0.98627
0.97647
0.98627
0.95098
0.96078
0.97647
0.98627
1.0059
1.0118
1.0157
1.0314
1.0412
1.0216
1.0569
1.051
1.0667
1.0725
1.0725
1.051
1.0157
1.0059
0.96667
1.0216
1.0314
1.0216
1.002
0.97647
1.0059
1.0216
1.0314
1.0157
1.0059
1.002
0.99608
1.002
0.97647
0.94118
0.98627
1.002
0.99216
0.99608
0.96667
0.98627
0.99216
0.95686
0.97647
0.97059
0.95686
0.97647
0.96667
0.97059
0.94118
0.98235
0.95098
0.96667
0.94706
0.95098
0.92549
0.94706
0.92549
0.92157
0.94118
0.91569
0.91176
0.92157
0.94706
0.97059
0.95098
0.98627
1.0059
1.0157
0.99608
0.98627
0.95686
0.89608
0.82157
0.8
0.8902
1.0275
1.1471
1.1765
1.1765
1.1059
1.0373
1.0059
1.0275
0.99608
1.0118
1.0216
0.98235
0.99216
0.99608
0.98235
0.97647
0.99608
0.98235
0.99216
0.97647
0.97647
0.95098
1.0059
0.96078
0.97647
0.97647
0.97647
0.96078
0.98235
0.98627
0.98235
1.002
0.99608
0.99216
1.0216
1.0275
0.99608
0.97647
1.0059
0.99216
0.99608
1.0059
1.0157
0.99216
0.98235
0.98627
0.96667
0.95686
0.95686
0.95098
0.95686
0.94706
0.90196
0.89608
0.95686
0.96667
0.95098
0.94118
0.94118
0.95098
0.92549
0.91176
0.95098
0.95098
0.91176
0.95098
0.94706
0.93137
0.93725
0.92157
0.89608
0.88039
0.88627
0.85686
0.86078
0.88627
0.91569
0.90196
0.98627
1.002
0.97059
0.97647
0.99216
0.95686
0.8902
0.81176
0.8
0.90196
1.0569
1.1765
1.1373
1.1667
1.0922
1.0667
1.0314
1.0059
0.96667
0.97059
0.96667
0.97647
0.96667
0.98627
0.99216
0.97647
0.91569
0.96667
1.002
0.98627
0.97059
0.96667
0.94706
0.94118
0.95686
0.97059
0.97647
0.95098
0.95098
0.97059
0.98235
0.96667
0.93725
0.96078
0.98235
0.97647
1.0059
1.002
1.002
0.95098
0.97647
0.99216
0.98627
0.95098
0.94118
0.98627
0.95098
0.95098
0.95686
0.97059
0.96667
0.95686
0.95098
0.95098
0.93137
0.92549
0.92549
0.93725
0.90196
0.92549
0.91569
0.94706
0.95686
0.97059
0.95098
0.94118
0.92549
0.93137
0.90588
0.89608
0.90588
0.88039
0.83529
0.81569
0.90196
0.95098
0.97059
0.98235
0.97647
0.99608
0.97059
0.96667
0.98235
0.92157
0.82549
0.81569
0.88039
1.0157
1.1412
1.1725
1.1863
1.1412
1.0725
1.0373
1.0118
0.99608
0.99608
0.94118
0.97647
0.97647
0.98235
0.99608
0.98627
0.99216
0.99216
0.97059
0.97647
0.97059
0.97059
0.98235
0.95686
0.91176
0.97059
0.98627
0.97059
0.96667
0.95686
0.94118
0.96078
0.97647
0.97059
0.97647
0.98627
0.98627
0.96078
1.0157
0.98627
1.0059
0.99608
0.97647
0.99608
0.97059
0.96667
0.97647
0.96078
0.93137
0.94118
0.94706
0.89608
0.96667
0.97647
0.96667
0.95098
0.96078
0.96078
0.94118
0.95098
0.92549
0.94118
0.95098
0.93137
0.95098
0.88627
0.95686
0.92157
0.91176
0.90196
0.92157
0.89608
0.88627
0.89608
0.91176
0.94706
0.96078
0.96078
0.97647
0.93725
0.99608
1.0059
0.94118
0.86667
0.81176
0.8451
0.93137
1.0922
1.1863
1.1725
1.1569
1.102
1.0059
1.0412
1.0157
0.99608
0.98235
1.002
0.99608
0.96667
0.95686
0.98235
0.99608
1.0059
0.94706
0.99216
1.0118
1.0157
0.98627
0.97647
0.96667
0.95686
0.98627
1.002
0.97647
0.98627
1.0118
0.98627
0.95686
1.0118
1.0118
1.0216
1.0157
1.0275
0.98627
1.0157
1.0216
1.002
0.98235
1.0216
1.0157
0.99608
0.99216
0.98235
0.96667
0.95686
0.93137
0.96667
0.96078
0.96667
0.96667
0.95686
0.94118
1.002
0.98235
0.99608
0.97647
0.95098
0.97059
0.97647
0.95098
0.95098
0.92157
0.93725
0.94118
0.92549
0.87059
0.91569
0.91176
0.94118
0.93725
0.97059
0.97059
1.002
1.0059
0.98627
1.0157
0.96667
0.87059
0.87647
0.83529
0.89608
1.0157
1.1176
1.1725
1.1824
1.151
1.0922
1.0608
1.0157
1.0314
1.0216
1.002
0.96667
1.0157
1.0216
1.002
1.0157
1.002
1.002
0.98627
1.002
1.0118
1.0059
1.002
0.98627
0.94118
1.0118
1.0059
1.0216
0.99216
1.002
1.002
1.0118
1.0275
1.0157
1.0118
0.99608
1.002
0.98235
1.0157
1.0216
0.99216
1.0373
1.0157
1.002
1.0059
0.98627
0.99216
0.97059
0.97647
0.95686
0.97059
0.97647
0.94118
0.91569
0.98627
0.96078
0.95686
0.98627
0.96078
0.96667
0.97059
0.97647
0.96667
0.96078
0.93137
0.97647
0.96667
0.95098
0.94118
0.91176
0.89608
0.90588
0.87647
0.90196
0.89608
0.90588
0.89608
0.97059
0.95098
1.002
1.002
0.99216
0.97059
0.94118
0.83529
0.81569
0.83137
0.88627
1.0314
1.1569
1.1765
1.1627
1.102
1.0314
1.0118
1.0216
0.98235
0.97647
0.99216
0.97059
0.97647
0.94706
0.94118
0.96078
0.93725
0.95098
0.92549
0.92157
0.98235
0.98235
0.96667
0.96078
0.97647
0.97059
0.97059
0.93725
0.92549
0.90196
0.90588
0.8902
0.99216
1.002
0.99608
1.0059
1.002
1.0157
0.99216
0.99608
0.96078
0.97059
0.95098
0.96667
0.97059
0.95686
0.89608
0.97059
0.95686
0.93137
0.94118
0.94706
0.92157
0.94706
0.95098
0.93725
0.94118
0.92549
0.92549
0.91569
0.90588
0.87647
0.95098
0.94706
0.88039
0.92157
0.94118
0.91569
0.91176
0.90196
0.88039
0.86667
0.85686
0.85686
0.89608
0.92549
0.90196
0.96078
0.98627
0.96667
0.96078
0.97647
0.92549
0.88039
0.83137
0.80588
0.85686
1.0059
1.1569
1.1863
1.1627
1.102
1.0314
1.0373
0.97647
0.97059
0.97647
0.96078
0.97059
0.92157
0.97647
1.002
0.95098
0.98235
0.99216
0.99608
0.97647
0.96667
0.95686
0.94118
0.93725
0.93137
0.96667
0.93137
0.95098
0.96078
0.92549
0.97059
0.97647
0.95686
0.99608
0.97647
0.99216
0.98627
1.002
0.99608
0.97647
0.99608
1.0118
0.99216
0.94706
0.97647
0.95686
0.99216
0.99608
0.99608
0.96078
0.95686
0.97647
0.95686
0.94706
0.95686
0.95098
0.95686
0.91569
0.97059
0.95098
0.95098
0.95686
0.93725
0.92157
0.92549
0.91176
0.92157
0.93137
0.91569
0.91569
0.92157
0.90196
0.95686
0.96078
0.94118
0.99216
0.98627
0.97647
1.0059
0.98627
0.94118
0.87059
0.7902
0.8451
0.91176
1.1059
1.1961
1.1765
1.1922
1.0961
1.0412
1.0157
0.99608
0.99216
1.002
0.99608
0.97647
0.99216
0.99608
0.94118
0.97059
0.98235
0.97647
0.99216
0.98627
1.002
0.99608
0.99216
0.97059
0.96667
0.90196
0.95686
0.96667
0.98235
0.97059
0.98235
0.99608
1.002
0.98235
1.0216
1.0275
0.99608
1.0118
1.0059
0.97647
0.99608
1.0314
1.002
0.99216
0.98627
1.0157
0.98627
0.97059
0.96078
0.98235
0.95098
0.92157
0.97059
0.97647
0.96667
0.97059
0.94706
0.93725
0.95098
0.93137
0.95098
0.93725
0.96078
0.97059
0.95098
0.94706
0.88039
0.93137
0.91569
0.92549
0.89608
0.88039
0.87059
0.90196
0.93137
0.95686
0.98627
1.002
1.0059
0.97059
1.002
0.94118
0.92549
0.85098
0.81176
0.8451
0.96078
1.0922
1.1627
1.1569
1.1863
1.0961
1.102
1.0471
1.0275
1.0275
1.0118
1.0157
1.0118
1.002
1.0157
1.0216
1.0157
1.0157
0.96078
0.99608
1.0216
0.99216
1.0118
1.0216
1.002
0.99608
0.98235
0.97059
1.002
1.0118
0.98627
1.0157
0.97059
1.0216
0.98235
1.0314
1.051
1.0569
1.0216
1.0275
1.0157
1.002
1.0157
1.002
0.97647
0.95098
1.002
0.98235
0.99608
1.002
0.99216
1.002
0.99608
0.97647
0.97647
0.96078
0.96667
0.96078
0.96667
0.95098
0.93137
0.95686
0.93725
0.90196
0.92157
0.91176
0.96078
0.95098
0.94706
0.92549
0.92157
0.89608
0.86078
0.92549
0.94118
0.95686
0.97647
0.99216
0.98235
1.002
1.002
0.96078
0.90588
0.87647
0.82549
0.80588
1.002
1.1118
1.1725
1.1863
1.1627
1.102
1.0667
1.0373
1.0059
0.97059
1.002
1.0059
1.0216
1.0275
0.97059
1.0412
1.0157
1.0216
1.002
1.0059
1.002
0.98235
0.99216
0.96078
0.93725
0.99216
0.98235
1.0157
1.0059
1.0216
1.002
0.98627
0.98235
1.002
0.99608
1.0059
1.0275
1.0373
1.0059
0.99608
0.97647
0.94118
1.002
0.99216
0.99216
0.99608
0.97647
0.98627
0.98235
0.99608
1.002
0.98235
0.97059
0.96667
0.98627
0.96667
0.95098
0.90196
0.94706
0.96078
0.95686
0.96667
0.91569
0.88039
0.97059
0.97647
0.94118
0.90588
0.91176
0.91569
0.88627
0.8451
0.84118
0.86667
0.88627
0.92157
0.95098
0.94706
0.97647
0.98627
0.99216
0.96667
0.97647
0.89608
0.81569
0.7549
0.86667
0.96078
1.0863
1.1922
1.1863
1.1922
1.0863
1.0471
1.0118
1.002
0.99608
0.96078
0.92157
0.98235
0.96667
0.99608
0.99216
1.002
0.99216
0.97059
0.93725
0.96667
0.98235
0.97059
0.92549
0.96667
0.97059
0.90588
0.95098
0.95686
0.95098
0.94706
0.95098
0.94706
0.97059
0.95098
0.99216
1.0059
0.98627
0.93725
0.98235
0.96667
0.95686
0.94118
0.94118
0.94118
0.91176
0.8902
0.91569
0.92549
0.86667
0.96078
0.97059
0.95686
0.94118
0.93725
0.92549
0.91569
0.91176
0.90588
0.91176
0.90588
0.91569
0.91176
0.8902
0.90588
0.93137
0.90588
0.90588
0.88039
0.85686
0.83529
0.81569
0.87647
0.87059
0.91569
0.99608
0.98235
0.97059
0.97647
0.97059
0.97647
0.98235
0.90588
0.83137
0.7902
0.87059
1.0118
1.151
1.1667
1.1314
1.0961
1.0725
1.0157
0.97059
1.002
1.0059
0.99216
1.0118
0.98235
0.97647
0.97059
0.96667
0.93137
0.96667
0.98235
0.98627
0.94118
0.97059
0.99216
0.97059
0.96078
0.97059
0.94118
0.94706
0.97059
0.96078
0.91176
0.95686
0.98235
0.97647
0.99608
1.002
1.002
0.99216
1.0216
1.0059
0.89608
0.88039
1.0373
1.0275
1.0157
1.0216
0.99216
0.97647
0.98235
0.96078
0.95686
0.95098
0.96078
0.96667
0.93725
0.92549
0.91176
0.96667
0.96078
0.96078
0.95686
0.95098
0.93137
0.91569
0.93725
0.8902
0.90196
0.87647
0.95686
0.93725
0.92157
0.91176
0.93137
0.95686
0.97647
0.98235
0.98235
0.98235
0.99608
0.97059
0.99216
0.91176
0.86667
0.79608
0.7902
0.99216
1.1275
1.2078
1.2118
1.1765
1.1176
1.0608
1.0216
1.0157
1.0059
0.97059
1.0118
1.0157
0.99216
0.99608
1.002
1.002
1.0059
0.98235
1.002
1.0118
0.96078
1.0118
1.0118
1.0216
0.97059
1.0157
0.98627
0.99216
0.99608
0.97059
0.98235
0.99608
1.0157
1.0314
1.0157
1.0373
1.0412
1.0275
1.0314
0.97059
1.0216
0.97059
1.0216
0.99216
0.98235
0.99608
1.0059
1.002
0.99608
0.97059
0.98235
0.99608
0.98235
0.95686
0.92157
0.95686
0.95098
0.92549
0.96078
0.95098
0.97647
0.94118
0.96667
0.95686
0.95098
0.93137
0.92549
0.88627
0.92157
0.90196
0.90196
0.94706
0.96078
0.98627
0.99608
1.0118
0.99608
0.97647
1.0471
1.0118
0.91569
0.8451
0.78039
0.8902
0.98627
1.1216
1.202
1.2216
1.1725
1.1059
1.0569
1.0275
1.0314
1.0157
1.0216
0.98235
0.96078
1.0275
1.0118
0.99608
0.96078
1.0157
1.051
1.0471
1.0412
1.0373
1.0216
1.002
1.002
1.0118
1.0216
0.97059
1.0275
1.0216
1.0059
1.0118
1.002
1.0314
1.0314
1.0216
1.0569
1.0314
1.0059
1.0373
1.0216
0.95686
1.0059
1.0314
1.0059
1.0157
0.99608
0.98627
1.002
0.99216
0.97647
1.002
0.99608
0.98627
1.002
1.0059
0.94118
0.98235
0.99216
0.99608
0.95686
0.97647
0.92549
0.97647
0.97059
0.97647
0.93725
0.92549
0.96667
0.93725
0.92549
0.92157
0.91176
0.92549
0.92157
0.99216
1.0059
1.0157
0.97647
0.95098
1.002
1.0471
0.97647
0.92549
0.86667
0.86078
1.0157
1.1667
1.2275
1.2314
1.1569
1.102
1.051
1.0118
1.002
1.0471
1.0157
1.0314
1.0275
1.0157
1.0275
0.97647
1.0118
1.0412
1.0471
1.0275
1.0157
1.0314
1.0118
0.99608
0.98627
0.95686
0.94118
1.002
0.99608
0.98627
1.0118
1.0059
0.97647
1.0275
1.0471
1.0059
1.0216
1.0275
1.0216
1.0157
1.0118
0.99608
0.98627
0.99216
0.98627
0.91569
0.89608
1.002
0.98627
0.97647
0.99608
1.002
0.94118
0.97059
0.97647
0.96078
0.95686
0.96078
0.95098
0.93725
0.91569
0.97647
0.97059
0.95098
0.96078
0.8902
0.93725
0.96078
0.95098
0.88627
0.90196
0.91569
0.90588
0.89608
0.93137
0.97059
1.0059
1.0118
0.99608
0.95098
1.0216
1.0275
0.95098
0.89608
0.84118
0.87059
0.99608
1.1412
1.1627
1.202
1.1667
1.0863
1.0216
1.0157
1.0216
0.99608
0.98627
0.99216
0.97059
0.94118
0.98627
0.95686
1.0118
0.99608
0.98235
0.99608
0.97647
0.97647
0.97059
0.94706
0.96078
0.92549
0.92157
0.97059
0.92157
0.90588
0.97647
0.96078
1.0118
1.0059
1.0157
1.0216
1.0216
1.0157
1.0118
1.0157
0.98627
0.97059
0.98235
0.93137
0.97647
1.0059
0.98627
0.97059
0.94118
0.97059
0.99608
1.002
0.96078
0.95686
0.97059
0.95098
0.94118
0.93725
0.96078
0.89608
0.8902
0.97647
0.96078
0.91176
0.94118
0.95686
0.93137
0.93725
0.91176
0.91176
0.88039
0.88627
0.90196
0.88039
0.93725
0.99216
0.99216
1.0157
0.96667
1.0059
0.99608
0.95098
0.8902
0.79608
0.80588
0.90588
1.0863
1.1725
1.2314
1.1863
1.1275
1.0608
1.0412
1.0059
0.99608
0.93725
1.002
1.0059
1.0216
1.0216
1.0216
1.0118
1.0118
0.97059
1.0314
1.0157
0.98235
0.99608
1.0059
0.97647
0.97059
0.94118
0.99216
0.99608
0.99608
1.002
0.99216
0.94706
1.0059
1.0216
0.98235
1.0314
1.0412
1.0314
1.0118
0.97647
0.98235
0.97647
0.98235
0.92549
0.98235
0.95098
1.0118
1.0216
0.96078
0.97647
0.95098
0.95098
0.94118
0.93137
0.95098
0.94706
0.95098
0.95098
0.94706
0.91569
0.89608
0.87059
0.99216
0.95098
0.91569
0.92549
0.94706
0.94118
0.92549
0.90196
0.87647
0.91569
0.94706
0.97647
0.94118
1.0118
1.0412
1.0471
1.0275
1.0314
0.94118
0.88039
0.82549
0.85686
0.94706
1.1118
1.1667
1.1824
1.1176
1.151
1.0863
1.0667
1.0275
1.0314
0.99216
0.98627
1.002
1.002
1.002
1.0118
0.98627
1.0157
1.002
1.0059
0.98235
1.0314
1.0725
1.0471
1.0314
1.0118
1.0157
0.98235
0.97647
1.002
1.0157
1.0275
1.0373
1.0118
1.0314
1.0373
1.0412
1.0471
1.0373
1.0216
1.0157
1.002
1.002
0.97059
0.95098
0.98235
0.95686
1.0118
0.95098
1.0059
0.99216
1.002
0.97647
0.98235
0.97059
1.002
0.98235
0.95098
0.97059
0.96667
0.97059
0.94706
0.93725
0.90588
0.92549
0.95098
0.94706
0.95098
0.92157
0.91176
0.90196
0.91176
0.89608
0.96078
0.98235
0.97059
1.0373
1.0118
0.96667
1.0314
1.0373
0.97647
0.93725
0.85098
0.88627
0.91176
1.0725
1.2216
1.2373
1.2078
1.1569
1.1059
1.0569
1.0118
1.0569
1.0275
1.0412
1.0471
1.0314
1.0216
1.051
1.0157
0.98627
1.0275
1.0314
1.0412
1.002
1.0412
1.0216
1.0216
1.0059
1.0314
0.99608
1.0216
1.0314
1.0059
1.002
1.002
1.0275
1.0157
1.0412
1.0314
1.0725
1.051
1.0471
1.0216
1.002
1.0412
1.0471
1.0157
0.99216
1.002
1.0157
0.97059
1.0059
0.98235
1.002
1.0118
0.99608
1.002
0.95686
1.002
0.96078
0.95098
0.91176
0.89608
0.99216
0.97059
0.96078
0.98627
0.99216
0.96078
0.93725
0.93137
0.92157
0.90196
0.88627
0.85686
0.89608
0.84118
0.92549
0.96667
0.98235
0.97647
0.96667
0.98627
0.99216
0.98235
0.94706
0.8451
0.81569
0.84118
0.93137
1.0667
1.1667
1.2216
1.1627
1.1118
1.0471
1.0157
0.95098
0.94706
1.0157
1.002
1.002
0.97059
0.96667
1.002
0.95686
1.0059
0.99608
0.96078
0.94706
0.98627
1.002
0.99608
0.97647
0.96078
0.96078
0.91569
0.89608
0.99608
0.97647
0.93137
0.98627
1.0059
0.99608
0.98235
1.0059
1.0216
1.0118
1.0118
0.99608
0.99216
1.0118
0.99216
0.93725
0.98235
0.93725
0.98235
1.002
0.97059
0.98235
0.97059
0.94706
0.96078
0.97647
0.94706
0.96667
0.95098
0.93137
0.91176
0.97059
0.91569
0.98235
0.98627
0.95098
0.95098
0.93725
0.91176
0.93137
0.94706
0.89608
0.93137
0.86667
0.91176
0.95686
0.97647
0.99216
1.002
0.99216
1.0059
0.99608
1.0118
0.97059
0.93137
0.8451
0.77059
0.94118
1.0725
1.2373
1.2471
1.1961
1.151
1.0922
1.0569
1.0118
0.95686
1.0157
0.99608
1.0275
0.99608
0.97059
1.0118
1.0275
1.002
0.99608
0.99216
0.99216
0.98235
0.93725
0.96667
1.002
0.99216
0.99608
0.96667
0.95098
0.95686
0.91569
0.98627
0.92157
0.98627
1.0157
1.0216
1.002
0.98235
0.97647
0.99216
0.99216
1.002
0.97647
1.002
0.94118
0.92549
1.0216
1.0059
0.98235
0.97647
0.94118
0.94706
0.93725
0.96667
0.95098
0.95686
0.96667
0.92549
0.90196
0.94706
0.94118
0.97647
0.95098
0.94118
0.95686
0.93137
0.93725
0.86667
0.83529
0.91176
0.92549
0.87059
0.91176
0.91569
0.92549
0.95098
0.96667
0.96078
0.92549
0.98235
1.0157
1.0059
0.95098
0.88627
0.82549
0.74118
0.8451
1.002
1.1725
1.2118
1.2176
1.1471
1.0608
1.0275
0.99608
0.96078
0.94118
0.97059
0.92549
0.99216
0.95098
1.002
0.98235
1.0118
0.97647
1.0059
1.002
0.98627
0.99608
1.002
0.94706
0.98627
0.97647
0.97647
0.96667
0.94118
0.97059
0.98627
0.99608
0.97647
0.94118
0.97059
0.99216
1.0314
1.0216
1.002
0.99216
0.98627
0.99216
0.95098
1.002
0.96078
0.95098
0.99608
1.002
0.93725
0.94706
0.95686
0.94118
0.94706
0.94706
0.93725
0.91569
0.88627
0.87647
0.93725
0.95686
0.96667
0.91569
0.96078
0.95098
0.94118
0.92157
0.90588
0.8902
0.84118
0.90196
0.90588
0.85686
0.8451
0.92157
0.91569
0.98627
1.0118
0.97059
0.94706
1.0157
1.0059
0.94706
0.88039
0.75098
0.8
0.88039
1.0118
1.1118
1.1373
1.1627
1.1216
1.0314
1.0216
1.0275
1.002
1.0059
0.99608
0.97647
0.97059
0.90588
0.99608
1.002
1.0059
1.002
1.002
1.002
0.95686
1.0059
0.98627
0.97647
0.99608
1.002
0.96078
0.94706
0.98627
0.98235
0.97647
0.99608
0.98235
1.002
0.94118
1.0216
1.0412
1.0118
1.0157
1.0157
0.99608
0.99608
0.96078
0.94118
0.98235
0.97647
0.97647
0.97059
0.92157
0.97647
0.98235
0.98627
1.002
0.98235
0.96667
0.96078
0.95098
0.93725
0.92549
0.95098
0.90588
0.97059
0.95098
0.97647
0.99608
0.97647
0.94706
0.93725
0.94118
0.90588
0.86667
0.8451
0.90588
0.85686
0.79608
0.92157
0.92549
0.94118
0.94706
0.95098
0.94118
0.92549
0.97647
0.96667
0.93137
0.8451
0.72157
0.82157
0.92157
1.051
1.1667
1.1725
1.1412
1.0725
0.96667
0.99608
0.98627
0.95686
0.97647
0.90588
0.98235
0.99608
0.99216
0.97647
0.98627
0.98235
0.96078
0.92549
0.99216
0.97059
0.96667
0.98235
0.94118
0.90588
0.96667
0.91569
0.97059
0.98627
0.96078
0.97059
0.97647
0.97059
1.002
1.0059
0.98627
0.97647
0.99216
0.92157
0.99608
1.0275
1.0216
1.0118
0.98235
0.97647
1.002
0.98627
0.97647
0.96078
0.97059
0.89608
0.99608
1.002
0.98235
0.96078
0.96078
0.91569
0.90196
0.91569
0.95098
0.97059
0.96078
0.97647
0.97059
0.99216
0.98627
0.97059
0.95098
0.94706
0.88627
0.93137
0.87647
0.91569
0.90196
0.92549
0.91569
0.95098
1.002
0.99608
1.002
0.99216
1.0157
0.97647
0.97059
0.93137
0.85098
0.8451
0.93725
1.0922
1.202
1.2078
1.1863
1.1275
1.0569
1.0314
1.0118
1.0373
0.96078
0.99608
1.0314
1.0275
1.0157
1.0275
1.002
0.99608
1.002
1.0118
0.96667
0.92157
1.002
1.0059
0.98627
0.99216
0.92157
0.99608
0.98235
0.98627
0.98627
0.99216
0.94706
1.0118
0.98627
1.0118
1.0275
1.0118
1.0157
1.0216
1.0059
0.97059
0.95098
1.002
0.98235
0.95098
1.0216
0.99216
1.0118
1.0059
0.98627
0.97647
0.97059
0.94118
0.93137
0.93137
0.8902
0.92549
0.90588
0.97647
0.97059
0.89608
0.8902
0.95686
0.97647
0.92549
0.91176
0.94706
0.90588
0.94706
0.95098
0.90588
0.90196
0.88627
0.87647
0.88039
0.91176
0.95686
0.98627
0.95098
1.002
0.98627
1.0275
1.0314
0.95098
0.8902
0.7902
0.77647
0.95098
1.0863
1.1667
1.202
1.1627
1.1314
1.0667
1.0412
1.002
0.96667
1.051
1.0373
1.0157
1.0412
1.0569
1.0373
1.0412
1.0275
1.0275
1.0118
0.97647
1.0059
1.002
0.98235
1.0059
1.002
0.94118
1.0275
1.0569
1.0275
1.0157
1.0157
1.0157
1.0216
1.0157
1.0059
0.99608
1.0216
1.002
1.0765
1.0667
1.0569
1.0373
1.0216
1.0216
1.002
0.97647
1.002
0.99608
1.002
0.97647
0.91176
1.0118
0.98627
0.97647
0.98627
0.99216
0.99216
0.99608
0.97647
0.99216
0.92549
0.99608
0.96078
0.99216
0.96078
1.0118
0.99216
0.99608
0.97059
0.94118
0.93137
0.95098
0.91569
0.95098
0.96667
0.98627
1.002
1.0216
1.0275
0.99216
1.0216
1.0059
1.0725
1.0059
0.94118
0.85098
0.86078
0.93725
1.0863
1.1765
1.202
1.2078
1.1216
1.0863
1.0725
1.0275
1.0314
0.99216
1.0373
0.97059
1.0275
1.002
0.97647
0.99216
1.002
1.0059
1.0373
1.0216
1.0157
0.96078
0.94706
0.97059
0.98627
0.94118
0.97059
0.99608
0.98627
1.002
0.99216
0.98235
0.99608
0.97647
1.002
1.0118
0.95686
0.98235
0.96667
1.0118
0.98235
0.96078
0.95686
0.95098
0.96078
0.97647
0.96667
0.97059
0.89608
0.94706
0.94706
0.93137
0.99216
0.97059
0.97647
0.94706
0.95686
0.93137
0.95686
0.95098
0.96078
0.95686
0.90196
0.95686
0.98627
0.96667
0.98235
0.97059
0.94706
0.95098
0.91569
0.90196
0.91569
0.92549
0.8902
0.87647
0.82157
0.91176
0.94706
0.95098
0.95098
0.94706
0.97059
0.94118
0.98235
0.90196
0.8451
0.77059
0.84118
0.91569
1.0471
1.1569
1.1824
1.1667
1.1216
1.051
1.0157
0.96667
0.94118
0.99608
0.98235
0.97647
0.92549
0.97059
0.98235
0.96078
0.98627
0.97647
0.98235
0.97647
0.97647
0.98627
0.99216
0.95686
0.92549
0.92157
0.97647
0.99216
0.96667
0.95098
0.95098
0.97059
0.99608
1.0118
1.002
0.98627
0.99608
1.002
0.96667
1.002
0.92157
1.0059
1.0157
1.002
0.97647
0.96078
0.94706
0.97059
0.94706
0.95686
0.92157
0.94706
0.95686
0.92549
0.89608
0.96078
0.94118
0.93137
0.92157
0.91569
0.94118
0.93137
0.92157
0.86667
0.92157
0.95098
0.94118
0.94706
0.88039
0.91176
0.92549
0.90588
0.90588
0.85686
0.89608
0.90588
0.94706
0.96078
0.95098
0.97647
0.98235
0.99216
0.93725
0.96078
0.93137
0.87647
0.81569
0.86667
0.98235
1.1216
1.2118
1.202
1.1627
1.0863
1.0471
0.95098
0.93725
1.0216
0.99608
1.002
0.97647
1.002
0.99608
1.002
0.96667
1.0216
1.0157
1.0216
1.002
0.98235
0.94118
0.97059
1.002
0.99216
1.002
0.98627
0.93725
0.98627
0.95098
1.0118
0.98627
1.0157
1.0275
0.95686
1.0412
1.0608
1.0314
1.0275
0.97647
1.0157
1.0216
1.0059
1.002
0.97059
0.99608
0.98235
0.96078
0.94706
0.93137
0.91176
0.93725
0.97059
0.94706
0.93137
0.94706
0.94118
0.94706
0.93137
0.93137
0.93725
0.92549
0.87647
0.94118
0.94706
0.90588
0.87647
0.93137
0.91569
0.92157
0.91176
0.91176
0.87647
0.83137
0.91176
0.95686
0.97059
0.99216
0.98235
1.0059
1.0118
0.97059
0.98627
0.95098
0.87059
0.84118
0.83529
0.90196
1.0725
1.1725
1.1863
1.1961
1.1275
1.0824
1.0157
1.0118
1.0569
0.98627
1.0412
1.0275
1.0157
1.002
1.0059
0.97647
0.99608
1.002
0.99608
0.95686
1.0157
1.002
0.96667
1.0059
0.99608
0.97059
0.94706
0.99608
1.002
1.002
1.0216
1.0118
0.98235
0.97059
1.0216
1.0314
0.98627
1.0373
1.0059
1.002
1.0412
1.0275
1.0216
1.0118
0.95686
0.99216
0.98235
0.99216
0.94706
0.99216
0.98627
1.0157
0.98235
0.99216
0.99216
0.98235
0.99608
0.98627
0.96078
0.97647
0.91176
0.98627
1.002
0.96667
0.93137
0.99608
0.97647
0.96667
0.93725
0.90588
0.93725
0.94118
0.92157
0.92549
0.88627
0.87059
0.96078
0.96667
0.92549
1.0059
1.0373
1.0471
1.0216
0.98235
0.90196
0.8451
0.83529
0.83137
1.0275
1.1412
1.1824
1.1961
1.151
1.0922
1.0569
1.0471
1.0373
0.99216
1.0059
0.98627
1.0157
1.0314
1.0118
1.002
1.0157
1.002
0.99216
0.96078
1.0118
1.002
0.99608
0.92157
1.0275
1.002
1.0118
1.0157
0.98235
0.97647
0.96078
0.99216
1.0118
0.99608
1.0157
0.97647
1.0118
1.0471
1.051
1.0157
1.0216
1.0059
1.002
1.002
0.96078
0.92549
0.99216
0.97647
0.96667
0.92157
0.97647
0.98627
0.95686
0.90196
0.98235
0.99608
0.97647
0.97647
0.97647
0.95098
0.94118
0.94706
0.88039
0.86667
0.96667
0.95686
0.95098
0.94118
0.92549
0.88039
0.87647
0.90588
0.90196
0.86667
0.85686
0.81569
0.83529
0.90196
0.95098
0.95686
0.97059
0.96078
0.96667
0.95686
0.96667
0.91569
0.84118
0.76078
0.81569
0.89608
1.0569
1.1059
1.1627
1.1627
1.102
1.0216
1.0118
0.93725
0.92549
0.96667
0.97647
0.95686
0.96078
0.96667
0.95098
0.89608
0.94706
0.95686
0.96078
0.93137
0.98627
0.97647
0.95098
0.94118
0.94118
0.92549
0.93137
0.92157
0.92549
0.88039
0.96078
0.97647
0.93137
0.98235
1.0059
0.96667
0.99608
0.97647
0.97647
0.95686
0.89608
0.99216
0.93725
0.95686
0.96078
0.94706
0.94118
0.95686
0.94706
0.94118
0.92549
0.93725
0.90588
0.88627
0.86078
0.91176
0.88039
0.93137
0.93725
0.94706
0.93137
0.94118
0.92549
0.91176
0.86667
0.92157
0.93137
0.90196
0.89608
0.90588
0.87647
0.85686
0.83529
0.86078
0.86667
0.83529
0.91176
0.95686
0.97059
0.96078
0.97059
0.98235
0.96078
0.94118
0.85686
0.82549
0.81569
0.8451
0.95686
1.0961
1.1569
1.1314
1.1412
1.0471
1.0157
0.96667
1.002
0.98627
0.96667
0.97059
0.90196
0.97647
0.98235
0.95098
0.91569
0.91176
0.97647
0.98235
0.93137
0.98235
0.96078
0.93137
0.88627
0.88039
0.95098
0.94706
0.94118
0.95098
0.93725
0.94118
0.93725
0.93725
0.94706
0.96078
0.94706
0.95098
0.91176
0.96667
0.93137
0.98235
0.96078
0.95686
0.95686
0.95686
0.94118
0.92157
0.95098
0.93725
0.93137
0.92549
0.91569
0.90588
0.93725
0.8902
0.87059
0.93725
0.90196
0.93137
0.90588
0.95686
0.94118
0.94706
0.92549
0.95098
0.91176
0.92157
0.93137
0.89608
0.8451
0.93137
0.92157
0.88039
0.87647
0.89608
0.88039
0.94118
0.94118
0.95098
0.96667
0.91176
0.97059
0.97647
0.85686
0.86078
0.77059
0.80588
0.86667
1.0725
1.1725
1.1471
1.1176
1.0725
1.0275
0.99216
0.93725
0.96078
0.97647
0.91569
0.94118
0.92549
0.97647
0.97059
0.99216
0.97647
0.99608
0.99216
1.0157
1.0059
1.002
0.99216
0.95686
0.92157
0.97059
0.94706
0.99608
0.97647
0.95686
0.95686
0.96078
0.97647
0.99608
1.0157
0.97059
1.0216
1.0059
0.99608
0.96078
0.92157
0.95686
0.97647
0.98235
0.94118
0.92549
1.0059
0.99608
0.97059
0.97059
0.98235
0.96667
0.97647
0.97647
0.93725
0.97059
0.96078
1.0118
0.97647
0.97059
0.98235
1.0059
1.0157
1.002
0.98627
0.99608
0.96078
1.0157
0.92157
1.002
0.96667
0.95098
0.90588
0.8902
0.90588
0.95686
0.98235
0.97647
0.98235
0.96078
1.0216
1.0314
0.95098
0.93725
0.86667
0.7902
0.8451
0.94118
1.0471
1.1412
1.1824
1.1412
1.1118
1.0471
1.0157
0.97059
0.98627
0.97647
0.95098
1.0059
0.98627
0.96667
1.0157
1.0157
1.0314
1.0216
1.002
1.0314
1.0216
1.0157
1.002
1.0118
0.94706
0.92157
1.0216
1.0314
1.0275
1.0314
0.97647
0.98627
0.99608
1.002
0.96667
1.0373
1.0216
1.0216
1.0275
1.0314
0.97059
1.0314
1.002
0.99608
1.0314
0.99608
1.0471
1.0275
1.051
1.0471
1.0373
1.0216
1.0157
0.97647
1.0275
0.99216
0.96078
0.94706
1.002
0.98235
0.98627
0.96667
0.95098
0.98235
0.96078
0.93725
0.8902
1.0118
0.98627
0.95098
0.91569
0.91176
0.90588
0.91176
0.88627
0.86667
0.83529
0.91569
0.95098
1.0059
1.0216
0.97647
0.96667
1.0471
1.0118
0.96078
0.85686
0.82549
0.87059
0.96078
1.1118
1.2275
1.202
1.2078
1.1059
1.0412
1.0667
1.0118
0.97059
1.0216
1.0157
0.99216
1.002
1.0059
0.99608
0.98235
0.99608
1.002
1.0059
0.95686
1.0275
1.0118
1.0216
1.0157
1.0118
0.99216
0.99608
0.97647
0.99216
1.002
1.0118
0.96078
1.0275
0.98627
1.0373
1.0471
1.0275
1.0216
1.0216
1.0373
1.0216
1.0157
0.99216
0.94118
1.002
1.0118
0.99608
0.94706
0.99608
1.002
0.99216
0.97059
0.93725
0.97059
0.95098
0.98235
0.97059
0.96667
0.97059
0.97647
0.92157
0.90196
0.98627
1.0216
1.0059
0.97647
0.97647
0.95098
0.94706
0.95098
0.91569
0.91176
0.90588
0.88627
0.91569
0.87647
1.0157
1.0216
1.0157
1.0216
0.98627
1.0216
1.0275
0.99216
0.94118
0.86667
0.8451
0.90196
1.0824
1.2118
1.1961
1.2078
1.1725
1.0961
1.0118
1.0412
1.0471
0.99608
1.002
1.0275
0.99216
0.97059
1.0471
1.0216
0.96667
1.0157
1.0216
0.98627
1.002
0.98627
0.97647
0.99216
0.97647
0.94706
0.95098
0.99216
0.97647
0.97647
0.99608
0.99216
1.002
1.0157
1.0059
1.0216
0.97059
1.0216
0.99608
1.002
0.95098
1.0216
1.0373
1.0275
1.0059
1.002
0.93137
0.98235
0.97647
0.97059
0.95686
0.96078
0.93725
0.92157
0.91176
0.95686
0.96078
0.93137
0.97647
0.97647
0.98235
0.96667
0.96078
0.95098
0.92549
0.95098
0.95098
0.94118
0.91569
0.84118
0.92157
0.94118
0.89608
0.89608
0.87647
0.86078
0.98627
0.99216
1.0157
1.0059
0.99216
0.98627
0.99216
0.94706
0.86667
0.82157
0.76078
0.86667
1.0275
1.1314
1.1863
1.2078
1.1569
1.1059
1.0667
1.0275
1.0118
1.0118
0.98235
0.96078
0.95686
1.0373
1.0471
1.0118
1.051
1.0314
1.0471
1.0216
1.0216
1.0314
1.0059
0.99608
1.002
0.99216
0.93137
0.94706
1.0216
1.0373
1.0275
1.0216
1.0275
0.98235
1.0412
1.0412
1.0275
1.0471
1.0412
1.0471
1.0275
1.002
0.98627
0.96078
0.93725
0.90196
1.0118
0.99608
0.97059
0.98235
0.94706
1.0059
1.0059
0.97647
0.99216
0.99216
0.97647
0.95686
0.95098
0.95098
0.95098
0.90196
0.86667
0.95098
0.90588
1.0059
0.98235
0.97059
0.94118
0.93137
0.92549
0.92157
0.90588
0.90196
0.89608
0.93137
0.95098
0.97647
0.94706
0.99216
1.0216
0.98235
1.0412
0.98627
0.91569
0.83137
0.81176
0.87647
1.0275
1.1569
1.1863
1.1961
1.1471
1.0725
1.0569
1.0373
1.0275
1.0059
0.96078
1.0275
1.0667
1.0569
1.0569
1.0608
1.0569
1.0373
1.0275
1.0216
1.0314
1.0059
1.0157
1.0216
0.98627
0.97059
1.0471
1.0373
1.0216
1.0216
1.0118
1.0412
1.0569
1.0667
1.051
1.0725
1.0471
1.0373
1.0275
1.0216
1.0157
1.0314
0.92549
1.0373
1.051
1.0314
1.0471
1.0059
1.0216
1.0275
1.0118
0.99608
0.97647
0.98235
0.98235
0.97647
0.98235
0.87647
0.87059
0.99216
1.002
0.97647
0.99216
0.96667
0.96078
0.97647
0.97059
0.96078
0.94118
0.92157
0.87647
0.87059
0.93137
0.8902
0.90588
0.88039
0.91569
0.96078
0.97647
0.96667
0.95098
0.99216
1.0314
1.0157
0.99216
0.93725
0.81176
0.78039
0.92157
1.0725
1.1824
1.2118
1.1373
1.1627
1.102
1.0412
1.0118
1.0275
1.0216
1.0216
1.0314
0.98235
1.0275
1.0314
0.98235
1.0314
1.0216
1.0118
1.0157
0.99216
0.97647
0.97059
0.95098
0.98235
0.96078
1.0157
0.97059
1.002
0.97647
1.0059
1.0118
1.0059
1.0275
1.0314
1.0157
1.0373
1.002
0.99216
1.0059
1.0471
1.0216
0.98235
1.0216
1.0216
1.0216
1.0059
0.99216
0.95098
1.002
1.0157
0.97647
0.97059
0.98235
0.92549
0.99608
0.96078
0.97647
0.91569
0.98235
0.99608
1.0118
1.0216
1.002
0.98235
0.97647
0.96667
0.95098
0.90588
0.97647
0.91569
0.94706
0.93725
0.93725
0.91569
0.94706
0.97059
0.96667
1.0216
0.95686
1.0118
1.002
1.0471
1.0157
0.94118
0.85098
0.82549
0.90196
1.0314
1.1725
1.2314
1.2078
1.1725
1.0765
1.0118
0.99608
1.0373
1.0725
1.051
1.0275
1.0314
1.0118
0.99216
0.99608
0.94706
1.0157
1.0118
1.0216
1.002
0.97647
1.0216
0.99216
0.97059
0.96078
0.95098
1.0275
0.98235
0.99608
1.002
0.98627
1.0118
1.0216
1.0216
1.0471
0.99216
1.0373
1.0157
0.98235
1.0373
1.0059
1.0314
1.0216
1.002
1.0275
1.0157
0.96667
1.0118
1.0059
0.95686
0.99216
1.002
1.002
0.97059
0.97059
0.94706
0.95686
0.97647
0.95686
0.97647
0.96667
0.92157
0.98235
0.95098
0.98235
0.96078
0.97059
0.95098
0.92157
0.96078
0.93725
0.92157
0.90588
0.90196
0.95686
0.95098
0.96667
0.90588
0.95686
1.0118
1.0216
1.002
0.96078
0.90588
0.82157
0.84118
0.91569
1.0275
1.1725
1.2078
1.1922
1.1176
1.051
1.0216
1.0471
1.0157
1.0118
0.98627
1.0059
0.97059
1.0275
1.0314
1.002
1.0059
0.95098
1.0569
1.0412
1.0412
1.0471
1.0157
0.99216
0.97059
1.0118
1.002
1.0216
0.98235
1.0216
1.0216
0.99216
0.98235
1.0471
1.0275
1.0471
1.0412
1.0314
1.0412
1.0157
1.0471
1.0216
1.0059
0.99608
1.0118
0.98627
1.0314
0.97059
1.0118
1.0314
1.0059
0.99608
0.98235
0.98627
0.97059
0.99608
0.98627
0.99608
0.92157
0.90196
0.98235
1.0059
0.98235
0.99608
1.002
0.93725
0.99608
1.002
0.96078
0.94118
0.92157
0.92549
0.90588
0.89608
0.91569
0.89608
0.97647
0.92157
1.0118
1.0412
1.0373
1.0157
0.98235
0.93137
0.86667
0.82157
0.86667
0.98627
1.0922
1.1667
1.1667
1.1725
1.0765
1.051
1.0373
1.0275
1.0216
1.0314
1.0216
0.98235
1.0314
1.0118
1.002
1.0157
0.95098
1.0059
1.0118
1.0059
0.99608
1.002
0.97059
0.98627
0.92157
1.002
0.98627
0.99608
0.99608
0.94118
1.002
0.99216
1.0275
1.0314
1.0118
0.98627
0.97647
0.94706
0.94118
1.002
0.99216
0.98235
0.97647
0.94706
0.95686
0.92157
0.96667
0.97647
0.93137
0.8902
0.92549
0.93725
0.91569
0.93137
0.92549
0.92157
0.90588
0.90196
0.86667
0.90196
0.88039
0.94118
0.95098
0.92549
0.90588
0.91176
0.88627
0.86078
0.87059
0.84118
0.85098
0.82157
0.86078
0.82549
0.87059
0.81176
0.86667
0.8902
0.92157
0.94118
0.93137
0.88627
0.93725
0.90588
0.86078
0.82157
0.72549
0.78627
0.89608
1.0118
1.1667
1.1725
1.1275
1.0275
0.98235
0.97647
0.96667
0.95098
0.95098
0.88039
0.87647
0.99216
0.97647
0.95098
0.93725
0.92549
0.94706
0.95098
0.92549
0.92157
0.96078
0.92157
0.96667
0.94118
0.8902
0.95098
0.94118
0.95098
0.92157
0.94118
0.94706
0.92157
0.98235
0.99608
0.99216
0.99608
0.94706
0.96667
0.99608
0.97647
0.92549
0.96667
0.97647
0.96078
0.96667
0.94118
0.95686
0.93725
0.92549
0.93725
0.95098
0.90196
0.92549
0.8902
0.94118
0.91176
0.90588
0.93137
0.92157
0.95098
0.94118
0.94118
0.90196
0.96667
0.98235
0.91176
0.95098
0.90588
0.92157
0.8902
0.8902
0.89608
0.87647
0.90196
0.92157
0.92549
0.86667
0.95686
0.95098
1.002
1.002
1.002
0.91176
0.89608
0.84118
0.83137
0.91569
1.0667
1.1569
1.1922
1.1725
1.1118
1.0373
0.99216
1.0373
0.95686
0.98235
1.0118
1.0275
1.0059
0.99216
0.98627
0.97059
0.96078
0.93137
0.97647
0.98235
0.98627
0.94118
0.98235
0.99608
0.96078
0.95686
0.97647
0.93137
0.94706
0.92549
0.98627
0.99608
1.002
1.0118
1.002
0.99216
0.96667
1.0314
0.99608
1.002
0.96078
1.002
1.002
0.97647
0.95686
0.97647
0.97647
0.98235
0.95098
0.92157
0.96078
0.94118
0.95686
0.96667
0.96078
0.95098
0.94706
0.93137
0.94706
0.90196
0.94706
0.96667
0.94118
0.97059
0.95098
0.94706
0.93137
0.91176
0.8902
0.91569
0.87059
0.83529
0.90588
0.8902
0.90196
0.93725
0.91569
0.97059
0.98627
1.0059
0.97059
0.98627
0.93725
0.94706
0.86078
0.81569
0.8451
0.95686
1.0863
1.1667
1.1667
1.1471
1.0569
1.0275
1.0314
0.98235
1.0216
1.0275
1.0059
0.97647
0.95098
1.0118
1.0157
0.96078
0.95098
0.99608
0.96078
1.0471
1.0471
1.0118
1.002
1.0216
0.99608
1.002
0.93725
1.002
0.97059
0.96078
1.0373
1.0059
0.97647
1.0471
1.0373
1.0314
1.0471
1.0314
1.002
1.0667
1.0412
1.0216
0.99216
1.0059
0.97647
1.0216
0.98235
1.0275
1.0157
0.99216
0.98627
0.99216
0.98235
0.99216
0.98627
0.94118
0.93137
0.97647
0.93725
0.99608
1.002
0.97059
0.94706
0.98235
0.94118
0.99216
0.97059
0.98235
0.95686
0.94706
0.92549
0.97059
0.92549
0.92157
0.95098
0.99216
0.96667
1.0275
1.0314
0.99608
0.97059
1.0412
0.95098
0.91176
0.96078
0.88039
0.90196
0.98627
1.1314
1.202
1.202
1.1725
1.1216
1.0725
1.0412
1.0157
0.98235
1.0314
0.98627
1.0725
1.0471
1.0471
1.0412
0.97059
1.0118
1.0412
1.0471
1.0373
1.0471
1.0216
1.002
0.95098
0.99216
1.0059
0.99608
1.0373
1.0412
1.0157
1.0471
1.0471
1.0275
1.0412
1.0216
1.0314
1.0412
1.0471
0.98235
1.0157
1.0216
1.0157
1.0118
1.0059
0.99216
0.96667
0.98235
0.94118
0.91569
1.002
0.97647
0.96078
0.91176
0.96078
0.94706
0.95098
0.95098
0.92549
0.89608
0.94118
0.91569
0.96078
0.96078
0.94118
0.90588
0.90196
0.95098
0.92549
0.92157
0.91176
0.88627
0.81569
0.87059
0.87647
0.86667
0.86078
0.85686
0.92549
0.92157
0.92549
0.88627
0.97059
0.99608
0.97647
0.90588
0.87059
0.81176
0.8
0.8451
1.0275
1.1373
1.1725
1.1059
1.1118
1.0471
1.0216
1.0059
0.97059
0.98235
0.98627
0.95686
0.95098
0.97647
0.97059
0.93137
0.97647
0.98235
0.95686
1.002
0.99608
1.002
0.98627
0.95686
0.95686
0.92157
0.96078
0.97647
0.98627
0.97059
0.98627
0.99216
0.95686
0.99216
0.96078
1.0216
0.96078
1.0216
1.0275
1.0157
1.002
0.98235
0.99608
0.97059
0.90196
1.0157
1.0275
0.99608
0.97647
0.93725
0.97647
0.98235
0.97059
0.96078
0.95098
0.93137
0.90196
0.95098
0.93137
0.95686
0.97059
0.97647
0.97059
0.98235
0.97647
0.96667
0.96078
0.92549
0.95098
0.95098
0.95098
0.93725
0.86078
0.90196
0.92157
0.90196
0.88039
0.97059
1.0412
1.0373
1.0412
1.0216
1.0216
1.0118
0.94706
0.89608
0.79608
0.77647
0.90196
1.0863
1.2216
1.2373
1.2216
1.1373
1.102
1.0667
1.0412
1.0157
0.92157
0.99608
1.0216
1.0157
1.0373
1.0412
1.0157
1.0314
1.0118
0.97647
1.0314
1.0118
0.99608
0.94706
0.92549
0.99216
0.97059
0.97647
0.97647
0.94706
1.0118
1.0059
1.002
1.0275
1.0314
1.0216
1.0118
1.0157
0.98627
0.98235
1.0373
1.0216
0.94118
0.97059
1.0157
1.0275
1.0118
0.99216
1.002
0.99216
0.95098
0.99608
0.97647
0.93725
0.97059
0.99608
0.98627
0.97059
0.95098
0.91569
0.93137
0.94706
0.98235
0.98627
1.002
1.002
0.95098
0.97059
0.97647
0.90196
0.94706
0.94118
0.91569
0.90588
0.92157
0.91176
0.93137
0.98235
0.97647
0.98235
0.97059
1.051
1.002
1.0216
0.98235
0.95098
0.86667
0.83529
0.86078
1.0059
1.1373
1.202
1.1765
1.1373
1.151
1.0961
1.0667
1.0157
1.0373
1.0412
1.002
1.0314
1.0373
1.0216
1.0216
0.97647
1.0412
1.0118
1.0314
0.97647
1.0157
1.0471
1.0412
1.0275
1.0216
1.0118
0.97059
1.0216
1.0373
1.002
0.98235
1.051
1.0569
1.0471
1.0314
1.002
1.051
1.0275
1.0608
1.0667
1.0569
1.0373
1.0412
1.0471
1.0216
1.0216
1.002
0.95686
0.91176
0.99216
1.0216
1.0059
0.99216
1.002
0.98235
0.99216
0.98235
0.99216
0.97059
0.97647
0.94118
0.97059
0.91176
1.002
1.0275
0.98627
0.95098
0.99216
0.97647
0.95686
0.94706
0.93137
0.94118
0.88627
0.88039
0.91569
0.98627
1.002
1.0118
0.97059
1.0373
1.0412
1.0118
1.002
0.93137
0.88039
0.83137
0.83529
0.93137
1.002
1.2078
1.2314
1.2078
1.1412
1.102
1.0608
0.99608
0.97647
1.0216
1.0275
0.93137
1.0412
1.0471
1.0373
1.0412
1.0118
1.0216
1.0059
0.99216
1.0059
0.97059
0.94706
1.002
0.99608
0.98235
0.98627
0.92157
0.98627
1.0059
1.0157
1.0373
1.0275
1.0412
0.98235
0.97059
1.0118
1.0373
1.0059
1.002
1.002
0.95098
0.91176
1.0059
0.99608
0.96667
0.98235
0.93137
0.97647
0.95098
0.95098
0.93137
0.91569
0.90588
0.83529
0.95686
0.96667
0.94706
0.95098
0.91569
0.90588
0.90588
0.89608
0.87059
0.90588
0.91176
0.87647
0.91569
0.90588
0.85686
0.90196
0.91176
0.87647
0.85686
0.78039
0.83529
0.83529
0.85098
0.89608
0.91569
0.88627
0.92549
0.95098
0.88039
0.99216
0.96667
0.88627
0.80588
0.77059
0.82157
0.94118
1.0922
1.1569
1.1412
1.1118
1.0059
1.0216
0.97059
0.94118
0.98235
0.96078
0.93725
0.92157
0.94706
0.96078
0.96078
0.97059
0.91569
0.95686
0.95686
0.95686
0.93137
0.90588
0.95098
0.95686
0.93137
0.92549
0.87647
0.93137
0.92549
0.97059
0.97647
0.95098
0.94706
0.97647
0.95098
0.92549
0.99216
0.99216
1.002
0.93725
0.92157
0.96078
0.95098
0.93137
0.94118
0.95098
0.90588
0.90196
0.92549
0.93137
0.87647
0.96667
0.92549
0.93725
0.92549
0.90196
0.88627
0.91176
0.90196
0.88039
0.90196
0.92157
0.84118
0.95686
0.93137
0.95686
0.94118
0.93725
0.92157
0.90196
0.87647
0.86667
0.86667
0.83529
0.7902
0.8902
0.85686
0.97059
0.97647
0.93137
0.95098
0.94118
0.99216
0.98627
0.94118
0.87647
0.8
0.7902
0.87059
1.0118
1.1314
1.1922
1.1314
1.1275
1.0725
1.0216
0.98235
0.98235
0.97647
0.97647
0.97059
0.96078
0.97647
0.92549
0.98627
1.0157
1.002
0.97059
0.96078
1.0118
0.96667
1.002
0.99216
0.94118
0.98235
0.96667
0.94706
0.97059
0.94118
1.0059
0.99608
1.0059
1.002
1.0275
1.0373
1.0118
0.99608
1.051
1.0314
1.0412
1.0157
0.94706
0.99608
1.0157
0.98627
1.0059
1.0118
1.0059
0.99216
0.97647
0.98627
0.97059
0.96078
0.97647
0.97647
0.91569
0.8902
0.98235
0.99216
1.002
0.98235
0.98627
0.99216
0.95098
0.96078
0.97059
0.94118
0.96667
0.94706
0.94118
0.8902
0.95098
0.92549
0.93725
0.91569
0.95098
0.95686
0.93137
1.002
1.0059
0.98235
1.0373
0.98235
0.99608
0.93137
0.79608
0.8451
0.92157
1.0569
1.1471
1.202
1.1922
1.1373
1.1059
1.0725
1.0569
1.0608
1.0118
0.91569
1.0373
1.0569
1.0373
1.0412
1.0157
1.0118
1.0216
1.0275
0.97059
1.0412
1.0216
1.0314
1.0275
1.0373
0.98627
1.0216
1.0157
1.0059
1.0314
1.0059
0.97059
1.0471
1.051
1.0725
1.0824
1.0765
1.0725
1.0569
1.0216
1.0569
0.99608
0.96667
1.0569
1.0216
1.0059
1.0216
1.0157
0.99608
0.96078
1.002
0.99216
1.0314
1.0216
1.0118
1.002
0.97647
0.95686
0.97059
0.99216
0.98627
0.96078
0.95098
0.92157
1.0059
0.96078
1.0373
1.0157
1.002
0.99216
0.97647
0.95098
0.88039
0.94706
0.95098
0.92549
0.94706
0.90588
0.97059
0.98235
0.99216
0.93725
0.99216
1.0412
1.0373
1.0471
0.96078
0.90588
0.83137
0.8451
0.91176
1.0608
1.1667
1.1824
1.1569
1.1118
1.0569
1.0961
1.0471
1.0569
1.0412
1.0471
0.97647
0.96667
1.0373
1.0216
1.0059
0.99608
1.002
0.96078
1.0216
1.0157
1.002
1.002
0.99216
0.98627
0.99216
0.91569
0.98235
0.97059
0.99608
1.0216
1.0216
0.98627
0.95686
1.0373
1.0412
1.0216
1.0118
0.96078
1.002
1.0216
0.99608
0.93725
1.0059
1.0118
0.98235
0.90196
0.95686
1.002
0.96667
0.95098
0.93137
0.95098
0.93137
0.91569
0.90588
0.92549
0.90196
0.83529
0.85098
0.92549
0.97059
0.95686
0.94706
0.93137
0.92157
0.91569
0.87647
0.86667
0.91569
0.90588
0.91176
0.83529
0.82549
0.86667
0.8451
0.83529
0.81569
0.90196
0.94706
0.96667
0.97059
0.95098
0.96667
0.93725
0.95098
0.83137
0.86078
0.81176
0.88627
1.002
1.1373
1.1922
1.1627
1.1275
1.051
0.98235
1.002
0.98627
0.96078
0.92549
0.86078
0.99608
0.98235
0.97647
0.99608
1.0059
0.96078
0.97647
0.94706
0.95098
0.94706
0.92549
0.96078
0.97647
0.98627
0.93725
0.91569
0.88627
0.95686
0.95098
1.002
1.0059
0.97647
0.94118
1.0059
1.0216
1.0059
0.99608
1.0118
0.96078
0.92549
0.99216
0.94706
1.002
0.99216
0.97647
0.97647
0.97647
0.98235
0.96078
0.94118
0.95098
0.94118
0.90588
0.83529
0.97059
0.98235
0.91176
0.96667
0.98235
0.97647
0.96078
0.95686
0.95098
0.91176
0.94706
0.94118
1.002
0.94706
0.95098
0.92549
0.91569
0.90588
0.93137
0.90588
0.86667
0.94706
0.97647
0.99608
0.96667
1.0216
1.0373
1.0412
1.0314
0.91176
0.93137
0.83529
0.80588
0.95686
1.0863
1.2176
1.2314
1.2118
1.1471
1.0725
1.0922
1.0373
0.99608
1.0216
1.0314
1.002
1.0275
1.0216
1.0275
1.002
0.99216
1.0059
1.0118
1.0216
0.92157
1.0314
1.0216
1.0059
0.96667
0.94706
0.94118
1.0118
1.0275
1.002
1.0157
1.002
1.0118
0.97059
1.0275
1.0412
1.0275
1.002
1.0275
0.98627
0.97059
1.0216
1.0216
1.0118
0.97647
0.99608
0.91569
1.0471
1.051
1.0118
0.98627
0.97647
0.98235
0.95098
0.93137
0.97059
0.95098
0.92549
0.91569
0.97647
0.98235
0.94118
1.0059
0.98627
0.96078
0.93725
0.92549
0.94118
0.91569
0.89608
0.96078
0.93725
0.96078
0.93725
0.95098
1.0059
1.0118
1.0157
1.0314
1.0412
0.97647
0.99608
0.92157
0.8451
0.82157
0.81569
1.0216
1.151
1.1627
1.1412
1.1667
1.1176
1.0765
1.0275
0.99608
1.0216
1.0216
1.0118
0.99216
1.0157
1.0216
0.97647
1.0157
0.99216
1.0373
1.0412
1.0059
1.0314
1.0471
1.0373
1.0275
1.0314
0.99216
0.96667
1.0216
1.0275
1.0216
0.98627
1.0569
1.0667
1.0471
1.0275
0.96667
1.0471
1.0569
1.0412
1.0216
0.99608
1.0216
1.0059
1.0059
0.98235
0.96078
0.99608
0.97647
0.94118
1.0059
0.99216
0.97059
0.98235
0.98627
0.97647
0.98627
0.99216
0.94706
1.002
0.94118
0.98627
0.97059
0.95098
0.95098
0.97059
0.98235
0.94706
0.96667
1.0157
1.0216
0.99216
0.97647
0.93725
0.92549
0.95686
0.93725
0.93725
0.84118
0.92549
0.95686
0.98235
0.97647
0.99608
1.0216
1.0059
0.99216
1.0059
0.98627
0.88039
0.92157
0.82549
0.81569
0.95686
1.1059
1.202
1.2176
1.2118
1.1471
1.0824
1.0275
1.0157
1.0608
1.002
0.95098
1.0157
1.0412
1.051
1.0314
1.0118
0.99216
0.97647
1.0373
1.0216
1.002
1.0059
1.002
0.95098
1.0059
1.0216
1.002
1.0059
0.99216
0.92549
1.002
1.0373
1.0157
1.0216
1.0314
1.0471
1.0157
1.0275
1.0314
1.0157
1.0314
0.93725
0.90588
1.0157
0.98235
1.0059
0.99216
0.96667
0.98235
0.98627
0.97647
0.99216
0.92157
0.97647
0.97647
0.96078
0.91569
0.97647
0.95098
0.93137
0.95098
0.93725
0.8902
0.85686
0.96667
0.95686
0.97647
0.93137
0.91569
0.93725
0.8902
0.92549
0.90588
0.90196
0.86667
0.87059
0.85686
0.88039
0.86667
0.95098
0.93725
0.97059
0.95098
0.92549
0.95098
0.91569
0.93725
0.83529
0.77647
0.86667
0.97059
1.1176
1.1725
1.1765
1.1373
1.0412
1.0059
0.93137
0.91569
0.97059
0.98627
0.97647
0.97059
0.96667
0.97059
0.97647
0.94706
0.93725
0.91569
0.88039
0.98235
0.93137
0.91569
0.97647
0.94118
0.92157
0.94706
0.90588
0.94706
0.95686
0.96667
0.97647
0.96078
0.97647
0.96078
1.002
1.0118
0.97059
0.98627
1.002
0.94118
0.93725
0.99608
0.97647
0.94706
0.98235
0.97059
0.96667
0.93725
0.91569
0.8902
0.97647
0.95098
0.94706
0.95098
0.94706
0.95098
0.94706
0.94118
0.93137
0.92157
0.90196
0.91569
0.86078
0.98235
0.99608
0.98627
0.97647
0.97059
0.95098
0.93137
0.92549
0.91176
0.89608
0.90588
0.83529
0.88627
0.87647
0.94706
0.95686
0.99608
1.0059
0.98627
0.99216
0.95686
0.96667
0.91569
0.87059
0.8
0.8451
0.92549
1.151
1.2176
1.1961
1.1725
1.0824
0.97647
1.0216
1.0118
0.96078
0.97647
0.99216
0.96667
0.98627
0.94706
0.93725
1.0118
0.98235
0.99216
0.97647
0.97647
0.96667
0.96078
0.95098
0.94706
0.95098
0.92157
0.88039
0.87647
0.94706
0.96667
0.98235
1.002
1.002
0.99216
1.002
0.99216
1.0059
0.94706
1.0059
0.98627
1.0118
0.97647
0.97647
0.91569
0.96667
0.99216
0.99608
0.95686
0.98627
0.96667
0.92549
0.92157
0.94706
0.92549
0.95098
0.93137
0.92549
0.93725
0.88039
0.89608
0.96667
0.94118
0.91176
0.95098
0.93137
0.97059
0.96667
0.92549
0.92157
0.92549
0.88627
0.92549
0.90588
0.88627
0.84118
0.89608
0.90196
0.92549
0.95686
0.90588
0.97647
0.99608
1.002
1.0118
0.95686
0.83137
0.7902
0.82157
0.87059
1.0059
1.1627
1.1725
1.1627
1.1275
1.0765
1.0412
1.0216
1.002
0.96667
0.97647
0.98235
0.91176
1.0157
1.0216
1.0059
1.0118
0.99216
0.98627
1.002
1.0059
1.002
0.92157
0.97647
0.94706
1.0118
1.0216
0.98235
0.97647
0.99608
0.99216
1.002
0.99608
1.002
1.002
0.96078
0.99216
1.0216
1.0059
1.0216
0.99608
1.0471
1.0118
1.002
0.98627
1.002
0.99608
0.95686
0.99216
0.97059
0.97647
0.96078
0.97059
0.90588
0.95098
0.99216
0.94118
1.0059
0.98627
0.97059
0.97647
0.93137
0.98235
0.95686
0.95098
0.97647
0.99216
0.93137
0.95098
0.91569
0.97059
0.97647
0.92549
0.93725
0.91569
0.8902
0.88039
0.93137
0.96667
0.89608
1.0216
1.0275
0.97647
1.0275
1.0471
0.96667
0.91569
0.82549
0.81176
0.87647
1.0275
1.151
1.1725
1.1961
1.1314
1.0863
1.0157
0.96667
1.0608
1.0569
1.0471
1.0216
1.0157
1.0275
0.97059
1.0275
1.0216
1.0118
1.002
1.0157
1.0216
0.96667
1.0216
1.0118
1.002
0.99216
1.0216
1.002
1.002
1.002
1.0059
0.97647
1.002
1.002
0.95686
1.0314
1.0216
1.0471
0.99216
0.96667
0.96078
0.93725
0.92157
0.90196
0.93725
0.91569
0.96078
0.98627
0.97059
1.0118
0.99608
1.002
0.95098
0.87647
0.81176
0.83529
0.93725
1.0157
1.0765
1.1275
1.0765
1.0118
0.98235
0.90588
1.0157
1.002
0.97059
0.96667
0.97059
0.91176
0.95098
0.94706
0.95098
0.95098
0.93137
0.92549
0.92549
0.92549
0.8902
0.89608
0.93725
0.94706
0.96078
0.96667
0.95098
0.92549
0.94706
0.95098
0.93725
0.92549
0.94118
0.85098
0.94706
0.97059
0.95098
0.94706
0.95686
0.94118
0.96667
0.94706
0.96078
0.95098
0.90196
0.87647
0.96667
0.96078
0.95098
0.88627
0.93137
0.95686
0.96078
0.95686
0.93725
0.91176
0.95098
0.94706
0.97059
0.99608
0.95686
0.92549
0.92157
0.96667
0.97059
0.97647
0.97647
0.96667
0.97059
0.93725
0.99608
1.002
0.97647
0.98235
0.91569
0.95098
1.0118
1.0314
1.0157
1.0118
0.99216
0.99608
0.98235
0.97647
0.97059
0.95686
0.98627
0.99608
0.96667
0.85686
0.97059
0.94706
0.91569
0.96078
0.94706
0.90588
0.90196
0.94118
0.95098
0.95098
0.93725
1.0216
0.97059
1.051
1.0275
0.97059
0.8902
0.78627
0.82157
0.92549
1.1216
1.2275
1.2078
1.1667
1.1176
1.0765
1.0314
0.97059
1.0157
1.0275
0.98235
1.0157
1.0216
1.0275
0.98627
0.97647
1.002
0.98235
1.002
1.0216
0.96078
0.94706
1.0216
1.002
1.0118
1.0059
1.002
0.99216
0.99608
0.99608
1.0216
0.99608
0.99216
1.0059
1.0275
1.0157
1.0275
0.94118
1.0765
1.0824
1.0608
1.0275
1.0157
1.0059
0.94118
1.002
1.0157
0.98627
0.97647
0.96667
0.92549
1.002
0.98627
0.96078
0.97059
0.95098
0.95098
0.88627
0.88039
0.97059
0.97647
0.99216
0.96078
0.95686
0.97059
0.93137
0.99608
0.99216
1.002
0.93725
1.002
0.98235
0.94706
0.91569
0.94118
0.93725
0.92549
0.88627
0.89608
0.87059
0.96667
0.93725
0.99608
1.0118
1.0412
1.0216
1.0157
1.0216
0.97647
0.90196
0.84118
0.83529
0.93137
1.051
1.1725
1.2314
1.1961
1.1314
1.1059
1.0922
1.0471
1.0314
1.002
1.0471
1.002
1.0118
1.0157
1.002
1.0059
0.97647
1.0216
0.97059
0.95098
1.002
1.0471
1.0471
1.0216
1.002
1.002
1.0157
1.002
1.002
0.97647
0.93137
1.0275
1.0157
0.96667
1.0412
1.0373
1.0471
1.0373
1.0608
1.0412
1.0157
0.96667
1.0373
1.0569
1.0471
1.0412
1.0157
1.002
0.99216
0.98235
0.96667
0.95098
0.93725
0.93137
0.99608
0.98235
0.93725
1.002
1.0059
0.95098
1.0118
0.99608
0.98627
0.99608
0.98235
0.95098
0.97647
0.95098
0.96078
0.96667
0.94118
0.92157
0.83529
0.82549
0.96667
0.94118
0.93137
0.96667
0.98627
0.99216
0.99608
1.0216
1.0314
0.97059
1.002
0.93725
0.88039
0.84118
0.86667
0.95098
1.0922
1.1824
1.1824
1.1471
1.102
1.1059
1.0863
1.0608
1.0471
1.0314
1.0216
1.0059
0.98235
1.0118
1.0216
1.0118
0.99608
0.96078
1.0216
1.0059
1.0373
1.0157
1.0216
1.0157
1.0059
0.99608
0.98235
0.95098
0.96078
1.0059
1.0412
1.0373
1.0275
1.0275
1.0275
1.0157
1.0216
1.0157
1.0412
1.0471
1.0157
1.002
0.99608
0.95098
0.92157
1.0118
1.0314
0.99216
0.98235
0.99608
0.95686
0.98235
0.98627
0.96667
0.97647
0.95098
0.90588
0.96667
0.98235
0.90588
0.97647
0.98235
0.94118
0.96667
0.97647
0.95098
0.97647
0.98235
0.96667
0.95686
0.90588
0.94118
0.91569
0.90588
0.91176
0.86078
0.8902
0.86667
0.90588
0.92549
0.96667
0.97059
0.92157
1.0059
1.0118
0.98235
0.96078
0.90588
0.8451
0.76078
0.85686
0.96667
1.0961
1.1725
1.1314
1.1824
1.0667
1.0157
1.0059
0.99608
0.97647
0.97059
0.92549
0.95686
0.94118
0.98627
0.97059
0.95686
0.91176
0.97647
1.002
0.98235
0.95686
0.93725
0.95686
0.94118
0.95098
0.91176
0.93725
0.91176
1.002
1.0059
0.97647
0.98627
0.97647
0.99608
0.99216
1.0059
0.96667
1.0118
1.0216
1.002
0.93725
0.93137
0.99608
0.98235
0.94118
0.95686
0.92549
0.97647
0.98627
0.93137
0.92157
0.95098
0.96667
0.95098
0.93725
0.94118
0.8902
0.93137
0.8902
0.93137
0.96078
0.97059
0.94118
0.97059
0.98235
0.97059
0.95686
0.94118
0.92157
0.92549
0.87647
0.93137
0.8902
0.8451
0.88039
0.90588
0.93137
0.95686
0.97647
0.99216
0.97647
0.99216
0.94706
1.0216
0.95686
0.92549
0.85098
0.8
0.88627
1.0059
1.1569
1.2275
1.2078
1.1569
1.0725
0.98627
1.0373
1.0275
0.99216
0.95686
0.99608
1.002
0.99216
1.0059
0.99608
0.93725
0.93137
1.0118
0.97647
0.98235
0.98627
0.97059
0.97647
0.94118
0.97647
0.93137
0.94706
0.99216
0.97059
0.99608
1.002
0.98627
1.002
0.99216
1.0118
1.0157
0.97059
1.002
1.0373
1.0118
0.99608
0.98235
0.97059
0.97647
0.97059
0.99216
0.98235
0.96667
0.95098
0.90196
0.97059
0.97647
0.93137
0.97059
0.95098
0.96667
0.95098
0.95686
0.91569
0.96667
0.95686
0.97059
0.95686
0.95098
0.93137
0.90588
0.97059
0.96078
0.94118
0.88039
0.92549
0.93725
0.90588
0.90196
0.87647
0.90196
0.84118
0.83529
1.0314
1.0275
1.0314
1.0216
1.0157
0.97647
0.92157
0.8451
0.77059
0.83137
0.95686
1.1059
1.202
1.1412
1.1667
1.1216
1.0765
1.0216
1.0216
1.0059
0.99608
0.94118
0.92549
0.99216
0.98235
0.99216
0.97059
0.95098
0.99216
1.0118
1.002
1.0275
0.96078
1.0157
1.002
0.98627
0.94706
0.93725
0.99608
1.0059
1.0157
1.002
0.95686
1.0157
1.0275
0.99216
1.0471
1.0608
1.0275
1.0373
1.0157
1.002
0.99216
1.002
0.94706
0.94118
0.99216
1.0118
1.002
0.97059
0.97647
0.98627
0.99608
0.97059
0.94706
0.89608
0.96667
0.98235
0.97059
0.95686
0.92549
0.98235
0.94706
0.95686
0.98235
0.97059
0.96078
0.93137
0.92549
0.87647
0.92549
0.91569
0.90588
0.90196
0.90588
0.89608
0.88627
0.94706
1.002
1.0216
0.99216
1.0216
1.0275
0.98235
0.93137
0.87059
0.79608
0.82549
0.92157
1.0725
1.1569
1.1725
1.0863
1.1176
1.0667
1.0471
1.0608
1.0373
1.0471
1.002
0.99608
1.0471
1.0412
0.97647
1.0118
1.0275
1.0157
0.99608
0.96078
1.0157
1.0216
1.0314
0.99608
1.002
0.92157
1.0118
1.002
1.0412
1.0471
1.0157
1.0314
1.0412
1.0216
1.002
1.0725
1.0216
1.002
1.0059
1.0157
1.0216
0.94706
1.0118
1.002
1.0216
1.0157
1.0118
1.0059
0.99608
0.94118
0.97647
1.002
0.92549
0.95686
0.97647
0.99608
1.002
0.98235
0.97647
0.98235
0.97647
0.92157
0.93137
0.87647
1.0059
1.0118
0.98235
0.96667
0.96667
0.96078
0.95686
0.92549
0.92157
0.92549
0.91176
0.89608
0.86667
0.8451
0.93725
0.90588
0.97647
1.0157
1.0216
0.99216
1.002
0.98235
0.88039
0.89608
0.83529
0.86078
0.95098
1.0725
1.1765
1.1863
1.1412
1.0667
0.97059
1.002
