0.49023
0.48486
0.51514
0.5
0.45996
0.46484
0.44482
0.43994
0.4751
0.43994
0.38525
0.47998
0.7998
1.25
1.5
1.1899
0.7251
0.39502
0.29004
0.2749
0.35986
0.37012
0.35498
0.37012
0.34521
0.39502
0.36523
0.37988
0.375
0.41504
0.3999
0.4502
0.43994
0.43994
0.43994
0.45996
0.49512
0.52002
0.51514
0.5498
0.6001
0.625
0.64014
0.68994
0.65479
0.68018
0.71484
0.70508
0.6748
0.68018
0.68506
0.6499
0.62988
0.60986
0.6001
0.5752
0.56006
0.5498
0.56982
0.49023
0.50977
0.49512
0.52979
0.4751
0.45996
0.48486
0.49023
0.46484
0.48486
0.51514
0.50488
0.52002
0.47998
0.44482
0.4502
0.45996
0.49023
0.50977
0.43994
0.43506
0.44482
0.45996
0.43018
0.4248
0.44482
0.41504
0.39014
0.43018
0.4248
0.41504
0.40479
0.43506
0.41992
0.37988
0.37012
0.37988
0.43506
0.43018
0.43506
0.375
0.3999
0.4248
0.43994
0.43994
0.43506
0.45996
0.43506
0.4248
0.43994
0.4751
0.43018
0.45996
0.43506
0.45508
0.46484
0.41992
0.44482
0.43506
0.43018
0.3999
0.45508
0.74512
1.145
1.4697
1.2998
0.73975
0.35986
0.25488
0.28027
0.31494
0.36523
0.37988
0.375
0.4248
0.34521
0.37012
0.37012
0.39502
0.37988
0.3999
0.39502
0.41504
0.4248
0.45508
0.4248
0.4502
0.48486
0.52979
0.56982
0.59521
0.58496
0.65479
0.6748
0.6499
0.65479
0.68018
0.69482
0.68506
0.6499
0.64014
0.64502
0.58984
0.63477
0.58984
0.55518
0.5
0.5249
0.54004
0.49512
0.47998
0.4751
0.51514
0.49023
0.45996
0.46484
0.45508
0.46484
0.47021
0.44482
0.45996
0.44482
0.49512
0.47021
0.49023
0.45996
0.45508
0.46484
0.45996
0.4751
0.44482
0.39014
0.3999
0.4248
0.43994
0.3999
0.4248
0.39014
0.43994
0.41992
0.40479
0.41992
0.40479
0.41504
0.45996
0.43506
0.3999
0.39502
0.39014
0.43018
0.40479
0.41992
0.41504
0.43994
0.43018
0.47021
0.48486
0.4502
0.43994
0.47021
0.44482
0.43506
0.46484
0.43994
0.41504
0.43994
0.4502
0.41992
0.44482
0.4248
0.4502
0.47021
0.50977
0.47021
0.46484
0.4751
0.49023
0.45508
0.47021
0.4751
0.375
0.36523
0.75488
1.125
1.4399
1.25
0.75488
0.40479
0.30029
0.38525
0.35498
0.33008
0.36523
0.38525
0.375
0.38525
0.37988
0.39502
0.38525
0.35498
0.3501
0.37012
0.41992
0.38525
0.4248
0.49512
0.50977
0.55518
0.53516
0.58496
0.6001
0.62988
0.62988
0.66016
0.64014
0.62988
0.69482
0.65479
0.63477
0.6001
0.60986
0.62988
0.60986
0.60498
0.58984
0.58984
0.56982
0.56494
0.5249
0.5
0.49512
0.53516
0.45508
0.46484
0.47021
0.4502
0.49512
0.47998
0.49023
0.48486
0.47998
0.46484
0.45996
0.44482
0.47021
0.45996
0.43994
0.46484
0.44482
0.41016
0.40479
0.43018
0.41016
0.4248
0.4248
0.43506
0.41992
0.43506
0.41016
0.37988
0.41016
0.37012
0.3999
0.41992
0.3999
0.3999
0.3999
0.37012
0.3252
0.4248
0.7998
1.2949
1.4697
1.1099
0.64014
0.30518
0.22998
0.26514
0.31982
0.33008
0.34521
0.3501
0.33984
0.35498
0.38525
0.36523
0.38525
0.37012
0.41016
0.36523
0.375
0.41992
0.44482
0.43994
0.47021
0.54492
0.53516
0.56006
0.63477
0.60986
0.62988
0.69482
0.6748
0.68018
0.65479
0.62988
0.6499
0.64502
0.625
0.6001
0.58984
0.62012
0.54004
0.5
0.51514
0.49023
0.45996
0.47021
0.45508
0.4502
0.47021
0.49023
0.4502
0.43994
0.4751
0.5
0.52979
0.45996
0.4751
0.47998
0.46484
0.4502
0.45508
0.43018
0.43506
0.41992
0.41016
0.4248
0.47021
0.39502
0.40479
0.41992
0.43506
0.3999
0.39502
0.44482
0.39502
0.39502
0.40479
0.41992
0.41016
0.41016
0.43994
0.4248
0.41016
0.39502
0.3999
0.35498
0.33008
0.71973
1.1797
1.4697
1.2148
0.71484
0.37012
0.24023
0.2251
0.28516
0.29492
0.31494
0.30029
0.33008
0.34521
0.33984
0.38525
0.3501
0.34521
0.36523
0.375
0.36523
0.41992
0.41016
0.46484
0.43994
0.48486
0.46484
0.5249
0.53516
0.51514
0.58008
0.61475
0.59521
0.64014
0.66504
0.69482
0.70508
0.625
0.62988
0.6001
0.60498
0.56006
0.54492
0.5249
0.53516
0.50488
0.45996
0.43994
0.4751
0.49023
0.47998
0.4751
0.5
0.47998
0.5
0.52002
0.5
0.44482
0.43506
0.47021
0.4502
0.46484
0.43994
0.4502
0.43994
0.43994
0.44482
0.41504
0.3999
0.45996
0.44482
0.45508
0.41504
0.41992
0.41992
0.45996
0.4248
0.41016
0.41992
0.41016
0.43018
0.47021
0.49023
0.43018
0.43994
0.41504
0.44482
0.49023
0.49512
0.45508
0.47998
0.43994
0.4248
0.41992
0.43506
0.48486
0.44482
0.36523
0.43994
0.75977
1.1948
1.4746
1.2349
0.73975
0.4248
0.31494
0.30029
0.33984
0.3252
0.35986
0.3501
0.39014
0.38525
0.39502
0.39014
0.3999
0.39502
0.41992
0.4502
0.43506
0.41504
0.41992
0.41504
0.49023
0.50488
0.51514
0.50488
0.53516
0.5752
0.63477
0.66992
0.66016
0.65479
0.68994
0.7002
0.62988
0.66016
0.58984
0.56006
0.5498
0.56982
0.55518
0.52002
0.49023
0.5
0.4751
0.49023
0.49512
0.50977
0.4751
0.4502
0.46484
0.45508
0.4751
0.43994
0.43506
0.45508
0.48486
0.49512
0.46484
0.44482
0.4502
0.45508
0.41992
0.4502
0.43994
0.43506
0.41016
0.39502
0.41992
0.43506
0.43994
0.43018
0.44482
0.43506
0.45508
0.40479
0.41504
0.43506
0.41016
0.39502
0.39014
0.3999
0.41504
0.4248
0.41992
0.43018
0.4248
0.45508
0.4502
0.43994
0.47021
0.45508
0.41992
0.41504
0.3999
0.41992
0.41992
0.43506
0.43994
0.43506
0.41992
0.45508
0.46484
0.45996
0.5
0.45508
0.44482
0.43994
0.45508
0.4502
0.51514
0.4502
0.45508
0.44482
0.4502
0.44482
0.41504
0.39014
0.70996
1.085
1.4746
1.5
0.87012
0.43018
0.29004
0.28027
0.3252
0.33984
0.3501
0.375
0.37988
0.375
0.41992
0.37012
0.36523
0.375
0.36523
0.39502
0.41992
0.43506
0.4502
0.45996
0.4751
0.5
0.50977
0.54004
0.59521
0.66504
0.6001
0.6499
0.7002
0.73486
0.7002
0.68506
0.6748
0.6748
0.66504
0.64502
0.6499
0.6001
0.58984
0.62012
0.53516
0.49512
0.5249
0.53516
0.52002
0.50488
0.52002
0.47021
0.50488
0.4751
0.46484
0.4502
0.45508
0.48486
0.45508
0.4248
0.4502
0.43994
0.45508
0.43018
0.44482
0.43994
0.41016
0.43018
0.43994
0.4248
0.39014
0.3999
0.39502
0.43506
0.43018
0.375
0.39502
0.41992
0.38525
0.39502
0.41504
0.4248
0.3999
0.41016
0.43018
0.41992
0.41016
0.4248
0.41992
0.41504
0.31494
0.31006
0.68506
1.125
1.4297
1.2246
0.71973
0.37988
0.25
0.24023
0.31982
0.33496
0.35498
0.41016
0.35986
0.34521
0.33984
0.33496
0.37988
0.37012
0.37988
0.37012
0.43018
0.43506
0.39502
0.4248
0.43506
0.45996
0.53516
0.52979
0.5752
0.625
0.6499
0.66504
0.65479
0.65479
0.68018
0.68994
0.60986
0.59521
0.58984
0.6001
0.55518
0.58008
0.50977
0.54004
0.5
0.49023
0.49023
0.48486
0.45996
0.48486
0.47998
0.47021
0.4751
0.45996
0.45996
0.43994
0.49512
0.4502
0.43994
0.46484
0.47998
0.5
0.43506
0.43018
0.43994
0.43506
0.45508
0.4502
0.43506
0.47998
0.48486
0.41016
0.375
0.37012
0.41992
0.43994
0.41992
0.41016
0.43018
0.43994
0.43018
0.41992
0.4248
0.41016
0.43994
0.49512
0.41992
0.4248
0.3999
0.4248
0.41504
0.41504
0.43018
0.41992
0.38525
0.37012
0.6001
1.02
1.3799
1.4448
0.875
0.52002
0.31494
0.29004
0.35498
0.36523
0.3501
0.3501
0.38525
0.40479
0.34521
0.38525
0.4248
0.37012
0.36523
0.38525
0.43506
0.46484
0.45508
0.46484
0.50977
0.52002
0.55518
0.51514
0.54492
0.59521
0.65479
0.62988
0.625
0.65479
0.64014
0.6499
0.66992
0.66016
0.66504
0.64502
0.61475
0.6001
0.58496
0.58008
0.60986
0.52002
0.46484
0.49023
0.49512
0.48486
0.49023
0.48486
0.47021
0.49512
0.5
0.49023
0.50488
0.50977
0.45508
0.4502
0.49023
0.46484
0.47998
0.47998
0.49023
0.47021
0.44482
0.4248
0.43506
0.43018
0.41504
0.4502
0.43018
0.39014
0.4248
0.4502
0.37988
0.35498
0.37988
0.39014
0.43018
0.41504
0.40479
0.43018
0.37988
0.37012
0.3999
0.41992
0.39502
0.39014
0.41504
0.43018
0.44482
0.45996
0.40479
0.43994
0.4502
0.41504
0.3999
0.41016
0.41992
0.43506
0.43994
0.43506
0.4502
0.4248
0.43994
0.4502
0.43506
0.4502
0.41504
0.4248
0.41992
0.43994
0.4502
0.43018
0.4502
0.40479
0.47021
0.75977
1.1797
1.4849
1.4897
0.6499
0.31494
0.24023
0.26514
0.31982
0.33984
0.34521
0.37012
0.375
0.35498
0.3501
0.39014
0.46484
0.39502
0.37012
0.39502
0.43994
0.4502
0.43506
0.41504
0.45996
0.47021
0.52002
0.54492
0.58008
0.62012
0.66992
0.6499
0.66992
0.6748
0.66992
0.70996
0.68994
0.64014
0.62988
0.625
0.6001
0.625
0.5752
0.58984
0.55518
0.50488
0.52002
0.54492
0.5
0.49023
0.49023
0.5
0.50977
0.48486
0.43994
0.45508
0.49512
0.49023
0.43506
0.44482
0.46484
0.41504
0.40479
0.48486
0.51514
0.45996
0.49023
0.46484
0.46484
0.47021
0.41504
0.3999
0.43506
0.4502
0.41016
0.38525
0.41016
0.41504
0.38525
0.37012
0.39014
0.41016
0.43994
0.41992
0.46484
0.43994
0.43506
0.39502
0.375
0.5752
1
1.3799
1.4648
0.91992
0.49512
0.30029
0.27002
0.31006
0.31494
0.3252
0.33496
0.36523
0.35986
0.39014
0.35986
0.38525
0.41504
0.37988
0.38525
0.41016
0.41992
0.3999
0.39502
0.43506
0.49023
0.48486
0.5498
0.52002
0.5752
0.625
0.66992
0.65479
0.66504
0.6499
0.65479
0.64014
0.625
0.6001
0.60498
0.55518
0.5752
0.58496
0.5249
0.49023
0.48486
0.52002
0.51514
0.56006
0.50488
0.47021
0.45996
0.48486
0.48486
0.46484
0.44482
0.43994
0.48486
0.4502
0.4248
0.43506
0.45996
0.44482
0.4502
0.45996
0.43994
0.5
0.45508
0.43994
0.41992
0.44482
0.43994
0.47021
0.43506
0.45508
0.45996
0.43506
0.44482
0.40479
0.43018
0.40479
0.3999
0.3999
0.40479
0.41992
0.41992
0.41016
0.45508
0.43506
0.43994
0.41992
0.39502
0.3999
0.41504
0.45508
0.4502
0.43506
0.44482
0.4751
0.45508
0.43506
0.44482
0.47998
0.4502
0.45996
0.41992
0.44482
0.43994
0.43994
0.4502
0.41016
0.375
0.62988
1.02
1.4146
1.5
0.93994
0.49023
0.31982
0.28027
0.31982
0.3501
0.31982
0.33496
0.34521
0.36523
0.33008
0.37012
0.38525
0.33984
0.31982
0.38525
0.39502
0.4248
0.46484
0.43506
0.41992
0.49512
0.52979
0.56494
0.60986
0.6499
0.66504
0.625
0.63477
0.62988
0.66504
0.6748
0.65479
0.62988
0.63477
0.625
0.6499
0.64014
0.625
0.56982
0.56006
0.54492
0.53516
0.52002
0.52979
0.50977
0.53516
0.48486
0.43994
0.43018
0.4248
0.46484
0.4502
0.45508
0.46484
0.47021
0.48486
0.46484
0.49023
0.49023
0.49023
0.5
0.50488
0.44482
0.46484
0.4502
0.43018
0.41504
0.40479
0.4248
0.41016
0.38525
0.39502
0.41992
0.39014
0.43018
0.41992
0.44482
0.46484
0.44482
0.45996
0.43506
0.44482
0.46484
0.44482
0.43506
0.43994
0.44482
0.41992
0.41992
0.46484
0.5
0.43018
0.37012
0.3999
0.43994
0.45996
0.41992
0.41504
0.43506
0.4751
0.49023
0.4751
0.45996
0.45508
0.47021
0.43994
0.4502
0.43994
0.43506
0.4751
0.45996
0.45508
0.4751
0.46484
0.49023
0.48486
0.50977
0.45508
0.43994
0.4751
0.46484
0.43506
0.4248
0.38525
0.37012
0.64502
1.0698
1.4346
1.5
0.89502
0.49023
0.33984
0.2749
0.33008
0.3501
0.33984
0.375
0.33984
0.3252
0.33984
0.30518
0.31982
0.33496
0.35986
0.37012
0.43506
0.41992
0.44482
0.43994
0.49512
0.52002
0.53516
0.56494
0.58008
0.59521
0.55518
0.6001
0.61475
0.63477
0.66504
0.68506
0.64502
0.62012
0.61475
0.68994
0.63477
0.62012
0.59521
0.58984
0.5498
0.52979
0.52002
0.52979
0.47998
0.46484
0.43506
0.4751
0.46484
0.4248
0.41992
0.47998
0.52979
0.54492
0.50977
0.49023
0.53516
0.50488
0.52002
0.47021
0.46484
0.48486
0.43994
0.4502
0.41992
0.41992
0.3999
0.38525
0.45996
0.45508
0.45996
0.47021
0.48486
0.46484
0.50488
0.4751
0.43506
0.47021
0.37988
0.35498
0.49023
0.88477
1.2998
1.4399
1.0049
0.58496
0.31006
0.27002
0.3252
0.37012
0.35498
0.37988
0.35986
0.37988
0.3501
0.375
0.41992
0.39502
0.3999
0.41992
0.39014
0.38525
0.40479
0.3999
0.4751
0.45508
0.52002
0.53516
0.5752
0.60498
0.62988
0.65479
0.68018
0.65479
0.6748
0.68994
0.66016
0.70508
0.625
0.56494
0.59521
0.53516
0.55518
0.5249
0.49023
0.4751
0.50977
0.47021
0.51514
0.53516
0.49023
0.47021
0.47998
0.49023
0.4751
0.48486
0.45996
0.49512
0.5
0.46484
0.45996
0.46484
0.43506
0.4248
0.46484
0.4502
0.41504
0.41016
0.43018
0.40479
0.39502
0.39502
0.43018
0.43018
0.40479
0.41992
0.4248
0.41992
0.39502
0.37012
0.35986
0.38525
0.39502
0.36523
0.39502
0.3999
0.39502
0.41992
0.43018
0.41504
0.4248
0.3501
0.45508
0.7998
1.1851
1.46
1.2046
0.66016
0.31494
0.24512
0.23486
0.30029
0.3252
0.33496
0.3501
0.34521
0.375
0.375
0.37012
0.37988
0.35986
0.41504
0.37012
0.39014
0.41016
0.41992
0.40479
0.4248
0.4502
0.47998
0.54004
0.58496
0.62012
0.6499
0.6748
0.69482
0.71973
0.7002
0.68018
0.65479
0.64014
0.625
0.64014
0.60986
0.55518
0.5249
0.52979
0.5
0.50488
0.49512
0.52002
0.50977
0.50488
0.52979
0.51514
0.51514
0.52979
0.54004
0.53516
0.49512
0.46484
0.4751
0.43994
0.48486
0.48486
0.45996
0.43506
0.46484
0.4502
0.45996
0.43506
0.4502
0.47998
0.44482
0.43994
0.49512
0.4502
0.41504
0.39502
0.41016
0.38525
0.41016
0.43506
0.41992
0.3999
0.41992
0.41504
0.43506
0.4502
0.44482
0.45996
0.50488
0.43506
0.41016
0.43994
0.4248
0.39014
0.375
0.73486
1.1499
1.4497
1.2446
0.72998
0.3999
0.24023
0.2251
0.31006
0.30029
0.34521
0.3501
0.31006
0.34521
0.3252
0.33008
0.33496
0.35986
0.39502
0.3999
0.41992
0.4248
0.3999
0.43018
0.43994
0.47021
0.49512
0.50488
0.51514
0.53516
0.5498
0.6001
0.60498
0.625
0.62988
0.60498
0.64014
0.63477
0.6001
0.58008
0.58008
0.60498
0.56006
0.50977
0.47998
0.45508
0.45996
0.43994
0.4751
0.4502
0.4751
0.47021
0.4751
0.45996
0.4751
0.53516
0.50977
0.49023
0.47021
0.4502
0.43994
0.41504
0.4248
0.43506
0.4248
0.41992
0.43018
0.4248
0.41992
0.45996
0.4248
0.47998
0.4248
0.45996
0.43018
0.43994
0.3999
0.39502
0.3999
0.40479
0.39502
0.41504
0.41992
0.40479
0.4248
0.46484
0.43018
0.43994
0.43994
0.45996
0.49023
0.46484
0.46484
0.46484
0.43994
0.41504
0.41992
0.40479
0.43994
0.4751
0.41504
0.40479
0.43994
0.45996
0.46484
0.48486
0.43018
0.3999
0.62012
0.99512
1.3696
1.4746
1.0146
0.56494
0.31006
0.2749
0.33496
0.36523
0.34521
0.34521
0.3501
0.375
0.39502
0.40479
0.39014
0.41992
0.4502
0.41504
0.43018
0.43506
0.47021
0.4751
0.45508
0.48486
0.5
0.5498
0.56006
0.58984
0.60498
0.66016
0.68994
0.63477
0.66016
0.66504
0.6748
0.65479
0.66992
0.62988
0.60498
0.6001
0.60498
0.56006
0.53516
0.52979
0.54492
0.48486
0.49512
0.5
0.46484
0.4751
0.49023
0.50488
0.45996
0.46484
0.45996
0.46484
0.46484
0.45996
0.46484
0.4502
0.49023
0.50977
0.51514
0.46484
0.49512
0.43994
0.40479
0.41992
0.4248
0.39014
0.38525
0.41016
0.36523
0.3999
0.41504
0.39014
0.33984
0.3252
0.5498
0.9751
1.3599
1.4048
0.81982
0.45508
0.30029
0.2749
0.29492
0.29492
0.30518
0.29492
0.33008
0.33984
0.3252
0.31982
0.33984
0.3252
0.39014
0.43994
0.38525
0.37012
0.44482
0.45508
0.47998
0.50977
0.49512
0.49023
0.52979
0.55518
0.5752
0.625
0.6499
0.66016
0.63477
0.62012
0.60986
0.63477
0.60498
0.6001
0.58008
0.56006
0.56494
0.53516
0.54492
0.56006
0.51514
0.53516
0.50488
0.45996
0.43506
0.43994
0.47021
0.48486
0.45996
0.44482
0.4751
0.49023
0.5249
0.50977
0.4751
0.47021
0.51514
0.46484
0.45996
0.43994
0.45996
0.43994
0.4248
0.41016
0.41992
0.38525
0.375
0.41016
0.4248
0.40479
0.39502
0.45508
0.41992
0.4248
0.43506
0.4502
0.41992
0.43994
0.4248
0.43994
0.41992
0.43506
0.41016
0.43994
0.43018
0.43994
0.41504
0.37012
0.36523
0.41016
0.41992
0.44482
0.44482
0.45996
0.44482
0.4502
0.43018
0.41016
0.56494
0.93506
1.3247
1.4546
0.91504
0.45996
0.26025
0.24512
0.28027
0.31006
0.3501
0.375
0.37988
0.39014
0.34521
0.37988
0.35986
0.33984
0.36523
0.37012
0.39502
0.39014
0.40479
0.39502
0.43506
0.45508
0.43994
0.51514
0.5249
0.52002
0.59521
0.64502
0.6499
0.64014
0.62988
0.65479
0.64502
0.65479
0.60986
0.60498
0.58984
0.58008
0.59521
0.56006
0.56494
0.49512
0.52979
0.49023
0.50977
0.47021
0.49023
0.47021
0.45508
0.44482
0.46484
0.45996
0.48486
0.46484
0.47021
0.49023
0.48486
0.4502
0.49512
0.47998
0.49023
0.49023
0.47021
0.43506
0.43506
0.4502
0.43506
0.46484
0.43018
0.43506
0.43994
0.43506
0.41992
0.43994
0.41992
0.41016
0.41504
0.41016
0.41016
0.39502
0.38525
0.43994
0.44482
0.43018
0.4248
0.4248
0.41992
0.43994
0.39502
0.37988
0.4248
0.45996
0.4751
0.43506
0.45508
0.44482
0.49023
0.46484
0.4751
0.45508
0.4751
0.43994
0.43506
0.4248
0.41016
0.35498
0.45508
0.78516
1.2148
1.4648
1.1797
0.6499
0.37012
0.28516
0.33008
0.375
0.38525
0.37988
0.40479
0.37012
0.35498
0.37012
0.36523
0.37988
0.375
0.43506
0.3999
0.41016
0.43994
0.44482
0.43506
0.49512
0.5249
0.56494
0.56982
0.59521
0.60986
0.63477
0.6499
0.6748
0.66016
0.6499
0.66016
0.66016
0.66504
0.62988
0.60498
0.62012
0.62988
0.60498
0.53516
0.50977
0.5249
0.47998
0.4751
0.4502
0.44482
0.47998
0.51514
0.49023
0.48486
0.49023
0.47021
0.48486
0.49023
0.47998
0.49023
0.54004
0.48486
0.49023
0.45996
0.43994
0.41504
0.41992
0.40479
0.41016
0.39502
0.4502
0.3999
0.41504
0.43506
0.44482
0.4502
0.37988
0.375
0.43018
0.41016
0.41992
0.41992
0.41992
0.3999
0.38525
0.41504
0.45508
0.41504
0.39502
0.43018
0.41504
0.43994
0.41992
0.44482
0.375
0.47998
0.83984
1.2246
1.4897
1.1548
0.63477
0.33984
0.27002
0.30518
0.33008
0.3501
0.33984
0.34521
0.33496
0.40479
0.375
0.38525
0.39502
0.4248
0.43506
0.43018
0.41504
0.43018
0.43994
0.44482
0.43994
0.48486
0.5249
0.5752
0.60986
0.58008
0.6499
0.6748
0.68506
0.68506
0.70508
0.68994
0.7251
0.73486
0.61475
0.59521
0.61475
0.59521
0.56982
0.52979
0.52979
0.50977
0.47998
0.47021
0.46484
0.50488
0.47998
0.50977
0.49512
0.48486
0.51514
0.5249
0.49512
0.49512
0.48486
0.50977
0.45508
0.4502
0.45996
0.48486
0.43994
0.45508
0.43994
0.47021
0.44482
0.46484
0.43994
0.46484
0.43018
0.39502
0.41992
0.39502
0.41504
0.4248
0.3999
0.39014
0.41016
0.39502
0.41016
0.39502
0.40479
0.41992
0.38525
0.3501
0.45508
0.8501
1.2847
1.4946
1.0649
0.54492
0.30518
0.23486
0.26514
0.34521
0.33496
0.30518
0.31494
0.34521
0.33008
0.375
0.39014
0.38525
0.3501
0.35498
0.36523
0.40479
0.43018
0.39502
0.44482
0.46484
0.45996
0.50488
0.5
0.54492
0.58496
0.59521
0.6499
0.69482
0.65479
0.62988
0.65479
0.62988
0.625
0.6001
0.58496
0.54492
0.56494
0.5249
0.53516
0.50488
0.4751
0.48486
0.45508
0.44482
0.49023
0.50488
0.49023
0.47998
0.5
0.48486
0.4751
0.49512
0.47021
0.48486
0.46484
0.45996
0.44482
0.50488
0.43506
0.43994
0.4248
0.41992
0.43506
0.43994
0.41992
0.45996
0.44482
0.41504
0.41992
0.41992
0.41504
0.45508
0.41992
0.44482
0.45508
0.43506
0.45996
0.4248
0.4248
0.45508
0.375
0.3252
0.55518
0.9751
1.3799
1.4897
0.91992
0.49023
0.28027
0.26025
0.3501
0.37012
0.36523
0.35986
0.36523
0.375
0.33984
0.3252
0.35498
0.40479
0.41992
0.375
0.37012
0.41504
0.43994
0.46484
0.45996
0.49512
0.49023
0.55518
0.56982
0.59521
0.62012
0.64014
0.62988
0.66992
0.6499
0.62988
0.64014
0.625
0.60498
0.61475
0.54004
0.5249
0.56006
0.54492
0.5
0.49023
0.48486
0.4751
0.50488
0.51514
0.47998
0.45996
0.49023
0.45996
0.43994
0.46484
0.5
0.4751
0.45996
0.41992
0.43506
0.44482
0.43994
0.49512
0.43994
0.41504
0.41992
0.41992
0.41016
0.3999
0.39502
0.41504
0.41992
0.40479
0.39502
0.39014
0.43018
0.3999
0.39014
0.41016
0.39502
0.41016
0.3999
0.41992
0.4248
0.4751
0.43994
0.4248
0.3999
0.43018
0.40479
0.3999
0.47998
0.39502
0.4248
0.41992
0.43994
0.45508
0.43506
0.4248
0.41992
0.41504
0.45508
0.46484
0.45996
0.43994
0.47021
0.43994
0.44482
0.45996
0.43018
0.4248
0.49023
0.43506
0.43018
0.4751
0.48486
0.46484
0.45508
0.49512
0.4751
0.47998
0.39502
0.47021
0.7998
1.2349
1.5
1.23
0.69482
0.38525
0.29004
0.28027
0.37012
0.38525
0.39502
0.41016
0.34521
0.33496
0.37012
0.37988
0.39502
0.39502
0.41016
0.41504
0.41504
0.45508
0.46484
0.48486
0.50977
0.53516
0.56494
0.56006
0.58984
0.6001
0.65479
0.66016
0.64502
0.65479
0.69482
0.6748
0.66992
0.68018
0.7002
0.68506
0.69482
0.62988
0.62988
0.60986
0.56494
0.54492
0.5498
0.4751
0.47021
0.51514
0.45996
0.44482
0.45508
0.46484
0.47998
0.54004
0.50488
0.51514
0.5
0.50488
0.47021
0.48486
0.46484
0.50977
0.45508
0.43018
0.43506
0.41016
0.4248
0.43994
0.41016
0.43018
0.41504
0.40479
0.43018
0.43994
0.43506
0.43506
0.43994
0.39014
0.39502
0.39014
0.43018
0.3999
0.41992
0.37988
0.39014
0.3999
0.41504
0.33984
0.45996
0.84473
1.27
1.46
1.0449
0.56982
0.30029
0.24512
0.26514
0.26025
0.33008
0.33984
0.28027
0.31494
0.36523
0.33984
0.37012
0.375
0.3501
0.37012
0.35986
0.4248
0.46484
0.41992
0.41992
0.43994
0.47021
0.50488
0.52979
0.58008
0.60498
0.60986
0.62988
0.66504
0.6748
0.63477
0.66504
0.58984
0.58008
0.56982
0.5752
0.55518
0.54492
0.53516
0.54004
0.5
0.49023
0.47021
0.48486
0.49023
0.45508
0.49023
0.43018
0.4248
0.4502
0.45996
0.47021
0.47998
0.49023
0.47998
0.46484
0.45996
0.4751
0.4248
0.3999
0.45508
0.43506
0.41992
0.40479
0.39502
0.41504
0.45996
0.41016
0.39502
0.41504
0.4248
0.43994
0.39014
0.41504
0.43018
0.41016
0.43018
0.43994
0.41992
0.4248
0.41016
0.43018
0.41992
0.43994
0.41504
0.36523
0.4751
0.84473
1.2549
1.4346
1.0547
0.6001
0.33496
0.30518
0.3501
0.33008
0.34521
0.31982
0.35498
0.34521
0.36523
0.38525
0.3501
0.3501
0.375
0.37988
0.36523
0.38525
0.41992
0.41016
0.47998
0.49023
0.55518
0.53516
0.6001
0.59521
0.625
0.63477
0.625
0.62988
0.6499
0.65479
0.625
0.60498
0.60498
0.56494
0.5752
0.53516
0.5752
0.54492
0.58984
0.59521
0.4751
0.49512
0.48486
0.49023
0.4751
0.45508
0.43994
0.51514
0.45508
0.44482
0.47998
0.49023
0.47021
0.46484
0.49023
0.54492
0.50488
0.47998
0.45996
0.44482
0.43994
0.4502
0.39502
0.41016
0.4248
0.39502
0.41504
0.39502
0.41992
0.39502
0.41504
0.4248
0.41504
0.39502
0.46484
0.41992
0.41016
0.40479
0.43506
0.43018
0.41504
0.43018
0.4248
0.41992
0.4248
0.36523
0.41992
0.70996
1.1396
1.4849
1.2549
0.71484
0.38525
0.25488
0.24512
0.29004
0.3252
0.3501
0.37988
0.37012
0.375
0.39502
0.39014
0.41016
0.375
0.3999
0.39502
0.41992
0.45996
0.40479
0.44482
0.46484
0.48486
0.50977
0.52002
0.56494
0.62988
0.61475
0.64502
0.6748
0.7002
0.68018
0.6499
0.62988
0.6499
0.6001
0.60986
0.61475
0.59521
0.62988
0.51514
0.52002
0.50488
0.54004
0.52002
0.47021
0.43994
0.4751
0.45508
0.46484
0.45996
0.51514
0.52002
0.47998
0.47021
0.5
0.47021
0.46484
0.4751
0.43018
0.4248
0.43994
0.43994
0.43994
0.47998
0.44482
0.40479
0.41504
0.41992
0.41992
0.41504
0.43506
0.40479
0.38525
0.41504
0.40479
0.41504
0.44482
0.39014
0.35986
0.39502
0.41992
0.45996
0.46484
0.47021
0.4248
0.41504
0.41992
0.40479
0.44482
0.41016
0.40479
0.38525
0.40479
0.39014
0.41504
0.37012
0.56494
0.97998
1.3599
1.4346
0.91504
0.5
0.31982
0.25488
0.28516
0.31006
0.33008
0.33984
0.36523
0.3501
0.3501
0.33496
0.35986
0.39014
0.36523
0.41504
0.38525
0.37988
0.39014
0.43994
0.43994
0.47021
0.48486
0.50977
0.5498
0.56982
0.60986
0.6001
0.63477
0.64014
0.62988
0.625
0.62012
0.62988
0.60986
0.6001
0.58496
0.58984
0.5752
0.58008
0.55518
0.52979
0.5
0.52979
0.49023
0.50488
0.52002
0.4751
0.50488
0.51514
0.47021
0.44482
0.43994
0.46484
0.45508
0.4502
0.47021
0.44482
0.45996
0.47998
0.43994
0.41504
0.43994
0.46484
0.48486
0.41016
0.3999
0.41992
0.43018
0.41992
0.4502
0.45996
0.41016
0.43994
0.4248
0.43018
0.37012
0.37988
0.40479
0.4248
0.4248
0.41992
0.43506
0.43018
0.41992
0.43994
0.41504
0.43994
0.3999
0.39502
0.41992
0.39014
0.375
0.49512
0.85986
1.2549
1.46
1.0947
0.62988
0.31006
0.2749
0.27002
0.31494
0.31982
0.3501
0.31982
0.34521
0.3501
0.33984
0.375
0.43506
0.375
0.41992
0.41016
0.43018
0.43994
0.4248
0.4502
0.47998
0.52002
0.56006
0.53516
0.5498
0.625
0.6499
0.6001
0.60986
0.68018
0.69482
0.6499
0.62988
0.62988
0.63477
0.64502
0.62988
0.56006
0.5249
0.50488
0.45996
0.49023
0.49512
0.4502
0.4751
0.48486
0.46484
0.47998
0.49512
0.48486
0.49512
0.48486
0.50977
0.46484
0.49023
0.46484
0.43994
0.41992
0.43018
0.43506
0.4248
0.41992
0.4248
0.43994
0.45996
0.41504
0.40479
0.43506
0.44482
0.41016
0.39502
0.40479
0.43994
0.41992
0.41504
0.41992
0.39502
0.40479
0.375
0.41992
0.43994
0.37988
0.31982
0.50488
0.9248
1.3599
1.4697
0.93506
0.5
0.28516
0.26514
0.3501
0.34521
0.375
0.35498
0.3501
0.35498
0.36523
0.37012
0.36523
0.39014
0.35986
0.3999
0.37012
0.3999
0.4502
0.43018
0.45508
0.48486
0.5249
0.5498
0.58984
0.60986
0.62988
0.6499
0.625
0.62012
0.66504
0.64014
0.625
0.625
0.6001
0.58496
0.56494
0.55518
0.58008
0.56982
0.53516
0.5249
0.54004
0.4751
0.51514
0.5
0.49023
0.47998
0.45996
0.45508
0.47998
0.45996
0.45508
0.46484
0.47998
0.5
0.4751
0.50488
0.46484
0.4751
0.45996
0.47021
0.49023
0.45508
0.4248
0.43018
0.39014
0.39502
0.375
0.43018
0.43506
0.35498
0.39502
0.43994
0.4502
0.41992
0.41504
0.43994
0.43018
0.40479
0.3999
0.43506
0.43018
0.45996
0.3999
0.375
0.38525
0.37012
0.39014
0.43506
0.41992
0.38525
0.41992
0.73486
1.1499
1.4497
1.27
0.70996
0.38525
0.24023
0.26025
0.30029
0.31494
0.3252
0.31006
0.3252
0.34521
0.3501
0.35498
0.35498
0.43018
0.43994
0.38525
0.39014
0.4502
0.46484
0.44482
0.41992
0.45996
0.50488
0.53516
0.54492
0.5752
0.62012
0.61475
0.64502
0.64014
0.69482
0.62988
0.62012
0.64502
0.61475
0.6001
0.62988
0.6001
0.5498
0.52002
0.50977
0.5249
0.49023
0.46484
0.45996
0.47021
0.49023
0.50977
0.52002
0.5
0.45996
0.49023
0.48486
0.50488
0.46484
0.4751
0.49023
0.4502
0.45508
0.45996
0.44482
0.45508
0.4248
0.39502
0.43506
0.41992
0.43994
0.45996
0.46484
0.43994
0.4502
0.4248
0.3999
0.39014
0.41016
0.41504
0.375
0.37012
0.40479
0.3999
0.41992
0.40479
0.41016
0.43018
0.47998
0.45996
0.43506
0.45508
0.44482
0.49023
0.41504
0.39014
0.37988
0.43994
0.3999
0.41992
0.3999
0.43018
0.46484
0.44482
0.47021
0.49023
0.45508
0.47021
0.45508
0.4502
0.49023
0.52002
0.45996
0.43994
0.41504
0.43994
0.43018
0.41992
0.43994
0.46484
0.43506
0.41992
0.38525
0.43018
0.70996
1.125
1.4697
1.4897
0.8999
0.47998
0.28027
0.25488
0.34521
0.31982
0.34521
0.3501
0.33984
0.35498
0.37012
0.375
0.39502
0.3999
0.4248
0.39014
0.44482
0.4248
0.41992
0.45996
0.47998
0.4751
0.5
0.52979
0.5752
0.60986
0.60498
0.68506
0.6748
0.65479
0.66504
0.6748
0.66992
0.6748
0.69482
0.64014
0.60498
0.58984
0.6001
0.60498
0.625
0.49512
0.47998
0.50488
0.51514
0.5
0.50977
0.51514
0.53516
0.52979
0.4751
0.46484
0.49023
0.46484
0.51514
0.5249
0.45996
0.44482
0.4502
0.43994
0.47998
0.49023
0.47021
0.45996
0.43506
0.41992
0.44482
0.47021
0.47998
0.45996
0.39502
0.40479
0.375
0.41016
0.41992
0.39502
0.37988
0.3999
0.4248
0.41504
0.39014
0.41992
0.41992
0.45508
0.45996
0.41992
0.41504
0.46484
0.43994
0.41992
0.3999
0.39502
0.43994
0.43018
0.4248
0.45996
0.49023
0.44482
0.38525
0.56006
0.98486
1.375
1.4946
0.98975
0.5752
0.27002
0.22998
0.33496
0.34521
0.33984
0.39014
0.35986
0.39014
0.37012
0.37012
0.3999
0.41504
0.41016
0.39502
0.41504
0.43994
0.45508
0.47021
0.44482
0.50488
0.5498
0.53516
0.56494
0.58984
0.63477
0.6748
0.68018
0.66016
0.69482
0.70508
0.70996
0.66504
0.66016
0.64502
0.66992
0.56982
0.56494
0.5752
0.54492
0.51514
0.50977
0.52002
0.47998
0.49023
0.47021
0.47998
0.4751
0.52979
0.49512
0.4502
0.45508
0.5
0.49023
0.47021
0.48486
0.49023
0.49023
0.4502
0.4248
0.45508
0.43994
0.43506
0.44482
0.40479
0.37988
0.40479
0.43018
0.4248
0.43994
0.41992
0.43994
0.41504
0.43018
0.41504
0.41016
0.36523
0.34521
0.51514
0.93994
1.3198
1.4048
0.85498
0.47998
0.31006
0.29492
0.35986
0.33496
0.34521
0.33496
0.3501
0.34521
0.3501
0.34521
0.37988
0.3252
0.33984
0.35498
0.375
0.39014
0.44482
0.46484
0.49512
0.48486
0.51514
0.52002
0.56494
0.59521
0.64014
0.62988
0.62988
0.64014
0.64502
0.60986
0.6001
0.59521
0.62012
0.63477
0.58496
0.58984
0.52002
0.50488
0.50977
0.51514
0.49023
0.4751
0.43994
0.45996
0.45508
0.5
0.4751
0.49512
0.49023
0.50488
0.45996
0.43018
0.48486
0.4248
0.43018
0.4502
0.45508
0.41504
0.45508
0.46484
0.43994
0.43018
0.41992
0.43994
0.47021
0.45996
0.4248
0.46484
0.47998
0.41504
0.41992
0.38525
0.40479
0.3999
0.40479
0.41504
0.3501
0.34521
0.6499
1.0449
1.375
1.4146
0.79492
0.45996
0.33496
0.29004
0.31982
0.33496
0.30029
0.3252
0.33008
0.38525
0.33496
0.35498
0.36523
0.38525
0.37012
0.39502
0.40479
0.43018
0.4502
0.3999
0.41992
0.46484
0.49023
0.51514
0.5498
0.53516
0.59521
0.62012
0.62988
0.6499
0.62988
0.6499
0.64502
0.66992
0.68018
0.58496
0.54492
0.5249
0.51514
0.4751
0.47021
0.43994
0.4502
0.44482
0.46484
0.4751
0.47998
0.50488
0.48486
0.50977
0.54004
0.50977
0.46484
0.45508
0.4751
0.46484
0.45508
0.43994
0.41016
0.41992
0.41016
0.4502
0.40479
0.39502
0.43018
0.43994
0.4248
0.44482
0.4502
0.4248
0.46484
0.4248
0.43506
0.41016
0.39502
0.41992
0.3999
0.39502
0.36523
0.35986
0.43018
0.41016
0.44482
0.41992
0.41504
0.41016
0.45508
0.45996
0.46484
0.4248
0.45508
0.4502
0.44482
0.43018
0.4248
0.44482
0.41504
0.41992
0.41992
0.43506
0.43994
0.4502
0.45996
0.43994
0.46484
0.47021
0.47998
0.49023
0.45996
0.43994
0.46484
0.4502
0.46484
0.43994
0.45996
0.47998
0.50977
0.3999
0.4502
0.71484
1.1348
1.4849
1.5
0.81982
0.43994
0.30518
0.28516
0.33496
0.35498
0.3252
0.375
0.33984
0.34521
0.33984
0.37012
0.35498
0.41016
0.3999
0.4248
0.44482
0.4248
0.43994
0.46484
0.49512
0.53516
0.5752
0.56006
0.61475
0.58008
0.6001
0.63477
0.64502
0.64014
0.71484
0.69482
0.68018
0.6748
0.7002
0.68506
0.64502
0.63477
0.65479
0.62012
0.5752
0.56982
0.58984
0.54004
0.52002
0.49023
0.46484
0.49023
0.49512
0.46484
0.45996
0.49023
0.49023
0.5
0.43994
0.43018
0.4751
0.46484
0.48486
0.50488
0.49023
0.46484
0.43018
0.46484
0.44482
0.40479
0.39014
0.41504
0.43506
0.41992
0.375
0.35986
0.3999
0.43018
0.43994
0.4248
0.41504
0.45508
0.49023
0.45996
0.44482
0.43018
0.44482
0.41992
0.43018
0.37988
0.36523
0.375
0.39502
0.41504
0.43994
0.41992
0.44482
0.4248
0.45996
0.44482
0.43506
0.43994
0.47021
0.45996
0.47998
0.4248
0.41016
0.44482
0.43994
0.41016
0.39014
0.44482
0.41016
0.43018
0.47021
0.49023
0.45996
0.45996
0.47021
0.47998
0.45996
0.4751
0.49023
0.4502
0.45996
0.43994
0.45996
0.4502
0.43506
0.44482
0.43994
0.40479
0.45996
0.62988
0.99512
1.3799
1.5
1.0146
0.54492
0.25
0.22998
0.31494
0.34521
0.3501
0.33008
0.3252
0.37988
0.375
0.39014
0.41992
0.43506
0.37988
0.43994
0.38525
0.41504
0.45508
0.41992
0.4502
0.45508
0.5
0.54004
0.52979
0.5752
0.63477
0.625
0.6499
0.64502
0.70508
0.64502
0.68018
0.69482
0.62988
0.61475
0.62988
0.61475
0.58496
0.6001
0.56006
0.53516
0.53516
0.5498
0.52979
0.46484
0.44482
0.4751
0.45508
0.47021
0.45508
0.4751
0.45508
0.47998
0.46484
0.45996
0.4751
0.49512
0.50977
0.45996
0.43994
0.4751
0.48486
0.52979
0.43506
0.41992
0.43506
0.38525
0.39502
0.3999
0.41504
0.41992
0.41016
0.43994
0.41992
0.43994
0.45508
0.45996
0.43506
0.44482
0.4248
0.43994
0.40479
0.38525
0.3999
0.41016
0.38525
0.3999
0.39502
0.41016
0.3999
0.43994
0.45508
0.45996
