0.52012
0.45046
0.47059
0.49536
0.50464
0.52012
0.55573
0.47523
0.45046
0.5
0.55573
0.64087
0.65015
0.58514
0.5
0.48452
0.50929
0.47059
0.45511
0.49536
0.43498
0.43963
0.41486
0.45046
0.47059
0.43498
0.45975
0.43498
0.47059
0.49536
0.45511
0.42415
0.41486
0.47523
0.49536
0.50929
0.4644
0.49071
0.49071
0.54954
0.70588
0.97678
0.99536
0.55573
0.31424
0.26471
0.43963
0.50464
0.58514
0.60062
0.64551
0.67492
0.62539
0.59598
0.43963
0.36997
0.4195
0.37926
0.32508
0.3452
0.3096
0.32508
0.31889
0.33901
0.3096
0.31889
0.32508
0.32508
0.27399
0.26471
0.21981
0.19505
0.13932
0.15944
0.1548
0.15944
0.1548
0.21981
0.24923
0.26471
0.35449
0.32508
0.39009
0.43498
0.49071
0.4644
0.5
0.54025
0.58978
0.57585
0.55573
0.54954
0.56037
0.5805
0.57585
0.58978
0.5805
0.56037
0.52477
0.47059
0.49071
0.52477
0.51548
0.50929
0.54489
0.51548
0.49536
0.49071
0.50464
0.55573
0.56966
0.60991
0.62539
0.58514
0.55573
0.51548
0.52477
0.47059
0.45046
0.50929
0.45046
0.42415
0.45046
0.45511
0.43963
0.5
0.47988
0.47523
0.43498
0.43034
0.45975
0.47523
0.45975
0.50929
0.5
0.50464
0.47523
0.50929
0.57585
0.52012
0.55573
0.73529
0.91641
0.82508
0.57585
0.35913
0.32972
0.56037
0.62074
0.6904
0.75542
0.72601
0.70588
0.64087
0.55573
0.37926
0.35449
0.34985
0.3452
0.3452
0.35449
0.35913
0.40402
0.34985
0.31424
0.30495
0.26006
0.24923
0.27399
0.2291
0.24458
0.22446
0.14396
0.13467
0.13467
0.13467
0.12848
0.24458
0.18885
0.16409
0.2291
0.26935
0.32508
0.39009
0.45511
0.49071
0.52012
0.54489
0.5805
0.60062
0.56502
0.52941
0.54954
0.52012
0.54025
0.58514
0.59598
0.51548
0.52012
0.5
0.5356
0.60062
0.49071
0.50929
0.51548
0.47523
0.51548
0.54025
0.5356
0.51548
0.5356
0.60526
0.63003
0.60062
0.62074
0.50464
0.52012
0.50929
0.51548
0.45975
0.47059
0.49536
0.45046
0.42415
0.44427
0.49071
0.42415
0.41486
0.49071
0.4644
0.49071
0.45046
0.48452
0.47059
0.45975
0.47988
0.51548
0.54954
0.5356
0.50464
0.51548
0.70588
0.90093
0.9613
0.60991
0.3452
0.28019
0.43963
0.56502
0.60062
0.56037
0.65015
0.70588
0.62074
0.55573
0.51548
0.44427
0.42415
0.37461
0.3452
0.34985
0.34985
0.31889
0.30031
0.32508
0.32972
0.33901
0.28483
0.27399
0.29412
0.21981
0.26471
0.18421
0.12384
0.10372
0.10836
0.16873
0.19969
0.13932
0.17492
0.25387
0.26471
0.3452
0.36533
0.41486
0.45046
0.50464
0.54489
0.56502
0.52941
0.56037
0.5805
0.58978
0.57585
0.60526
0.5805
0.61455
0.54489
0.52477
0.52012
0.56037
0.54489
0.51548
0.5356
0.54489
0.5356
0.56502
0.59598
0.54025
0.58514
0.52941
0.54025
0.59598
0.60526
0.56966
0.51548
0.50464
0.52012
0.49071
0.54489
0.49536
0.42415
0.36997
0.39474
0.42415
0.43498
0.4644
0.48452
0.49071
0.50929
0.47059
0.45046
0.54025
0.43034
0.41022
0.45511
0.47988
0.51548
0.56037
0.50929
0.49536
0.61455
0.85139
0.94582
0.80495
0.54489
0.3452
0.33901
0.52477
0.63467
0.65015
0.67028
0.69969
0.71981
0.61455
0.45511
0.38545
0.39474
0.36533
0.31889
0.3452
0.33437
0.32972
0.37461
0.38545
0.30495
0.29412
0.32508
0.28019
0.23375
0.22446
0.20898
0.18885
0.15944
0.15944
0.19969
0.13932
0.10836
0.14861
0.19505
0.21981
0.23994
0.32508
0.40402
0.41486
0.47059
0.52012
0.5356
0.55573
0.5356
0.56037
0.55573
0.5805
0.56037
0.56966
0.54025
0.57585
0.60062
0.54025
0.50464
0.56502
0.50929
0.5356
0.5
0.50464
0.49071
0.51548
0.49536
0.48452
0.55573
0.54489
0.5356
0.60062
0.60062
0.58978
0.56037
0.52477
0.50464
0.49536
0.49536
0.51548
0.52477
0.50929
0.4644
0.47988
0.42415
0.39474
0.45511
0.45975
0.47523
0.47059
0.48452
0.47523
0.50929
0.5
0.45975
0.4644
0.48452
0.50929
0.52012
0.49071
0.48452
0.55573
0.74613
0.87152
0.93034
0.68111
0.42415
0.36997
0.50464
0.60526
0.58514
0.5805
0.71981
0.74613
0.60991
0.50464
0.45046
0.39938
0.40402
0.39938
0.35449
0.36997
0.4195
0.43034
0.28483
0.25387
0.27399
0.31424
0.31889
0.28947
0.25387
0.25387
0.22446
0.26471
0.14396
0.099071
0.10372
0.10836
0.16409
0.18421
0.22446
0.28483
0.3452
0.39474
0.43498
0.49536
0.45975
0.50929
0.49536
0.51548
0.54954
0.54489
0.58978
0.60062
0.56037
0.57585
0.52477
0.56502
0.5805
0.52477
0.54954
0.56037
0.56966
0.52941
0.5356
0.50929
0.51548
0.47059
0.49536
0.52477
0.54025
0.52941
0.54954
0.60062
0.64087
0.60991
0.66099
0.50464
0.47059
0.50464
0.49071
0.50464
0.50929
0.49536
0.47523
0.4644
0.44427
0.43963
0.47059
0.48452
0.4644
0.45511
0.49071
0.47059
0.49536
0.50929
0.4644
0.48452
0.56037
0.4644
0.49536
0.49071
0.55573
0.54025
0.69969
0.89164
0.95046
0.71517
0.41022
0.32972
0.49536
0.5805
0.64087
0.69505
0.68111
0.67492
0.68111
0.5356
0.54025
0.39474
0.33437
0.33901
0.33901
0.33437
0.41022
0.41486
0.34985
0.31424
0.28019
0.30031
0.30495
0.24923
0.23994
0.30495
0.19505
0.1548
0.17957
0.14396
0.11455
0.094427
0.12848
0.16873
0.23994
0.29412
0.28947
0.35449
0.40402
0.41486
0.50464
0.4644
0.45975
0.54025
0.55573
0.52477
0.5805
0.60062
0.58514
0.5356
0.56502
0.54489
0.56037
0.56502
0.51548
0.54025
0.5356
0.50929
0.5
0.5356
0.5356
0.51548
0.52477
0.48452
0.54025
0.58514
0.58978
0.52941
0.56037
0.59598
0.60062
0.60991
0.60526
0.56502
0.49071
0.47523
0.43963
0.43498
0.47059
0.49071
0.43963
0.45975
0.47523
0.45975
0.43034
0.4195
0.4644
0.48452
0.43963
0.45511
0.47059
0.47988
0.5356
0.54489
0.49071
0.52477
0.5
0.49071
0.60062
0.79567
0.92105
0.82043
0.54025
0.28483
0.36533
0.49536
0.5356
0.60062
0.63467
0.63003
0.61455
0.63003
0.56037
0.45046
0.39474
0.39474
0.37926
0.39938
0.41022
0.3452
0.33901
0.29412
0.28019
0.30031
0.30495
0.30031
0.30495
0.23994
0.24458
0.26935
0.13932
0.1192
0.13467
0.099071
0.10836
0.14396
0.1548
0.18421
0.27399
0.31424
0.35913
0.43963
0.45975
0.54489
0.54954
0.49536
0.56502
0.55573
0.56037
0.55573
0.57585
0.58978
0.63003
0.60991
0.56037
0.55573
0.54025
0.56502
0.52477
0.54489
0.54025
0.56037
0.52941
0.54489
0.58514
0.55573
0.49536
0.49071
0.55573
0.56502
0.60991
0.63467
0.56966
0.52477
0.5
0.52012
0.50929
0.49071
0.51548
0.47988
0.41486
0.39474
0.44427
0.4644
0.45511
0.45975
0.47988
0.49071
0.49071
0.47059
0.4644
0.47988
0.49071
0.45975
0.49536
0.49071
0.50464
0.5356
0.50464
0.49071
0.69505
0.83591
0.93653
0.77554
0.50929
0.38545
0.47988
0.52941
0.60526
0.67492
0.67492
0.68111
0.66563
0.61455
0.49071
0.4195
0.36533
0.35913
0.36997
0.36533
0.43498
0.37461
0.27399
0.26006
0.28483
0.30031
0.26006
0.25387
0.30031
0.24458
0.20433
0.17492
0.14861
0.16409
0.18421
0.13932
0.1192
0.10372
0.13932
0.19505
0.26006
0.31424
0.4195
0.49536
0.4644
0.43963
0.50464
0.52477
0.56966
0.58978
0.55573
0.60062
0.54025
0.55573
0.56037
0.5356
0.56502
0.64551
0.55573
0.48452
0.5
0.50929
0.50464
0.54025
0.52941
0.56037
0.5
0.50464
0.47523
0.50464
0.51548
0.54025
0.62074
0.62539
0.59598
0.63003
0.70588
0.72601
0.73529
0.81115
0.81579
0.47059
0.33901
0.43498
0.36997
0.33901
0.23994
0.28947
0.39938
0.43034
0.39474
0.37461
0.40402
0.39009
0.39938
0.36997
0.40402
0.41486
0.43498
0.39474
0.36997
0.39474
0.38545
0.37926
0.41022
0.39009
0.39474
0.31424
0.30031
0.32972
0.36997
0.31889
0.34985
0.38545
0.41022
0.42415
0.50464
0.48452
0.5
0.54025
0.51548
0.52941
0.5805
0.63003
0.56966
0.54489
0.56037
0.54954
0.57585
0.54489
0.54025
0.58978
0.54025
0.47988
0.4644
0.47059
0.33901
0.45511
0.54025
0.48452
0.34985
0.17492
-0.021672
-0.12074
-0.20124
-0.1161
0.02322
0.2291
0.37461
0.54954
0.58978
0.60526
0.61455
0.66099
0.67492
0.63467
0.66099
0.58978
0.56037
0.54025
0.55573
0.58978
0.62074
0.67028
0.64087
0.60991
0.66099
0.68576
0.68111
0.73529
0.73065
0.83127
0.8452
0.78019
0.73529
0.74613
0.76625
0.81115
0.88545
0.76625
0.66099
0.56037
0.5356
0.52012
0.52941
0.5356
0.54954
0.4195
0.39009
0.35449
0.39474
0.41486
0.35449
0.37461
0.40402
0.41486
0.43498
0.49536
0.44427
0.39009
0.35449
0.38545
0.43498
0.44427
0.41486
0.38545
0.41486
0.43034
0.43963
0.4644
0.45511
0.47523
0.45975
0.45046
0.49071
0.42415
0.50929
0.73994
0.89164
0.9257
0.65015
0.42415
0.35449
0.54489
0.60991
0.69505
0.76006
0.78638
0.68111
0.56966
0.43498
0.37461
0.35913
0.33901
0.27399
0.26006
0.27399
0.29412
0.21981
0.23375
0.24923
0.26006
0.20433
0.21362
0.13932
0.13467
0.20433
0.13932
0.099071
0.089783
0.089783
0.1192
0.14396
0.18885
0.24458
0.30031
0.29412
0.36533
0.39938
0.44427
0.4644
0.45511
0.45046
0.47523
0.48452
0.50464
0.54025
0.56037
0.49071
0.50929
0.52477
0.50929
0.47059
0.4644
0.49071
0.49536
0.5
0.52477
0.56502
0.5356
0.47523
0.50929
0.60062
0.6548
0.60526
0.54954
0.49536
0.51548
0.49071
0.47988
0.51548
0.52012
0.43034
0.41022
0.47059
0.47523
0.39938
0.41486
0.45046
0.4644
0.43963
0.50464
0.50929
0.4644
0.4195
0.49071
0.50464
0.41486
0.43498
0.48452
0.52477
0.51548
0.50929
0.56037
0.67492
0.8452
0.9257
0.66099
0.39009
0.21981
0.35449
0.42415
0.52477
0.63003
0.66099
0.69969
0.59598
0.56037
0.45511
0.44427
0.40402
0.35449
0.32508
0.3452
0.35913
0.31424
0.30495
0.3452
0.3096
0.28483
0.25387
0.26471
0.22446
0.20433
0.17957
0.18421
0.1548
0.16409
0.13932
0.15944
0.17957
0.21981
0.25387
0.28483
0.33437
0.31424
0.43498
0.4644
0.45511
0.54025
0.50929
0.52012
0.54954
0.5805
0.5805
0.57585
0.5805
0.5805
0.58978
0.54489
0.54025
0.60526
0.57585
0.52477
0.47523
0.47059
0.49071
0.51548
0.56037
0.54489
0.52941
0.56502
0.49536
0.52012
0.52941
0.54025
0.56037
0.57585
0.56037
0.51548
0.52012
0.44427
0.4644
0.47988
0.47523
0.50929
0.45975
0.43963
0.39938
0.43034
0.4644
0.45975
0.48452
0.50929
0.5
0.4644
0.52941
0.47523
0.45511
0.47988
0.50929
0.49071
0.50929
0.50464
0.51548
0.5
0.71981
0.94582
1.0263
0.66563
0.39009
0.3452
0.5356
0.56037
0.66099
0.70588
0.73994
0.71053
0.63003
0.52012
0.47059
0.47523
0.38545
0.39009
0.31424
0.30495
0.33901
0.34985
0.32972
0.31889
0.33437
0.30031
0.31889
0.30495
0.25387
0.20433
0.17492
0.15944
0.17492
0.13467
0.14396
0.16873
0.20433
0.23375
0.25387
0.30031
0.37461
0.39009
0.42415
0.49071
0.54025
0.54954
0.52941
0.60062
0.56037
0.56037
0.5805
0.62074
0.54954
0.54489
0.54954
0.55573
0.54954
0.56502
0.54489
0.56037
0.5356
0.50464
0.5
0.49536
0.52012
0.50929
0.49071
0.50929
0.49536
0.52477
0.5356
0.61455
0.64087
0.60062
0.60526
0.5356
0.51548
0.52012
0.49071
0.47059
0.48452
0.47523
0.4644
0.43498
0.44427
0.45975
0.48452
0.47988
0.45511
0.47059
0.5
0.49071
0.49071
0.49536
0.49071
0.49071
0.50929
0.49071
0.50929
0.50464
0.5
0.52012
0.66099
0.87152
0.96594
0.75542
0.47988
0.33901
0.45046
0.52477
0.60991
0.68576
0.69969
0.67492
0.6548
0.56037
0.47059
0.37461
0.34985
0.3452
0.33901
0.34985
0.33901
0.32508
0.33437
0.32508
0.3096
0.29412
0.28483
0.26935
0.25387
0.22446
0.19969
0.15944
0.14396
0.13467
0.12848
0.12384
0.16409
0.20898
0.23994
0.27399
0.31889
0.37461
0.41022
0.45511
0.50929
0.56966
0.68111
0.79102
0.85139
0.86533
0.6548
0.27399
0.20898
0.37926
0.45975
0.4644
0.54489
0.66563
0.69505
0.66563
0.63467
0.59598
0.51548
0.4644
0.4644
0.45975
0.44427
0.43963
0.45511
0.47059
0.47988
0.50464
0.54954
0.57585
0.56037
0.54025
0.5
0.47523
0.47988
0.4644
0.5
0.48452
0.47988
0.48452
0.47523
0.50464
0.50929
0.52941
0.5356
0.5356
0.54489
0.54025
0.52012
0.5356
0.51548
0.49071
0.48452
0.48452
0.47988
0.45975
0.4644
0.47523
0.45975
0.45511
0.47059
0.45975
0.4644
0.4644
0.47059
0.4644
0.47059
0.51548
0.49536
0.4644
0.4644
0.45975
0.4644
0.47523
0.48452
0.49071
0.4644
0.48452
0.49536
0.47988
0.47059
0.5
0.48452
0.49071
0.47988
0.47523
0.49071
0.47059
0.45975
0.49536
0.47988
0.48452
0.47059
0.48452
0.49071
0.47059
0.47988
0.47059
0.50929
0.48452
0.4644
0.47988
0.45975
0.44427
0.4644
0.47988
0.48452
0.49071
0.48452
0.47523
0.4644
0.49071
0.50464
0.47988
0.45511
0.47059
0.49071
0.49536
0.48452
0.48452
0.45975
0.47523
0.49071
0.47988
0.4644
0.47988
0.4644
0.47059
0.47988
0.49536
0.52477
0.55573
0.56037
0.58514
0.56966
0.55573
0.51548
0.50464
0.48452
0.47523
0.48452
0.4195
0.41486
0.45046
0.41022
0.39009
0.41486
0.43498
0.45511
0.4195
0.42415
0.41486
0.45975
0.4644
0.4644
0.44427
0.45975
0.49071
0.47059
0.49536
0.49071
0.68111
0.83591
0.89164
0.6904
0.35913
0.2291
0.31889
0.47523
0.5356
0.58978
0.62074
0.65015
0.60991
0.55573
0.48452
0.42415
0.36533
0.33901
0.35449
0.32508
0.33437
0.32508
0.31424
0.30031
0.30495
0.31889
0.28947
0.26471
0.23375
0.24458
0.23375
0.20433
0.20898
0.19969
0.18421
0.16409
0.17957
0.19969
0.23375
0.26935
0.3096
0.35449
0.39938
0.43963
0.47988
0.49071
0.50929
0.5356
0.56966
0.59598
0.56966
0.57585
0.54025
0.54954
0.56037
0.56037
0.56502
0.54954
0.54489
0.55573
0.54489
0.5356
0.54489
0.56037
0.52012
0.50464
0.51548
0.52477
0.52941
0.5356
0.5356
0.54025
0.5356
0.58978
0.60526
0.60526
0.56966
0.52012
0.50929
0.5
0.48452
0.49071
0.48452
0.47059
0.4644
0.43034
0.42415
0.43963
0.4195
0.45046
0.45975
0.4644
0.45975
0.4644
0.47059
0.47988
0.49071
0.49071
0.49071
0.49536
0.52941
0.52477
0.50929
0.54025
0.70588
0.89164
0.9613
0.71981
0.47523
0.40402
0.54489
0.57585
0.63467
0.66563
0.71981
0.69505
0.63003
0.52012
0.41486
0.39474
0.36997
0.36533
0.35449
0.3452
0.33437
0.35449
0.34985
0.32972
0.31424
0.3096
0.28019
0.28019
0.25387
0.22446
0.18885
0.16873
0.15944
0.14861
0.13467
0.14861
0.15944
0.18885
0.2291
0.28019
0.32972
0.37926
0.4644
0.54489
0.67028
0.7709
0.84056
0.86533
0.57585
0.19505
0.1548
0.3096
0.40402
0.47059
0.56037
0.66099
0.67028
0.6904
0.66563
0.61455
0.52941
0.49536
0.49071
0.49071
0.47059
0.47523
0.48452
0.4644
0.49071
0.48452
0.5
0.54489
0.5805
0.59598
0.58514
0.56037
0.52941
0.5356
0.52941
0.54025
0.54954
0.56037
0.56037
0.55573
0.52941
0.52477
0.54489
0.54954
0.5356
0.5356
0.52477
0.5356
0.52941
0.5
0.49071
0.49536
0.49536
0.48452
0.47059
0.4644
0.47988
0.47523
0.47059
0.4644
0.47059
0.47988
0.45511
0.45975
0.47523
0.47988
0.47059
0.47523
0.49071
0.47523
0.47988
0.47523
0.47059
0.48452
0.47059
0.49071
0.48452
0.4644
0.47523
0.49071
0.47988
0.47059
0.47059
0.47523
0.49071
0.4644
0.47059
0.47523
0.47523
0.47988
0.49071
0.49071
0.48452
0.49071
0.49071
0.47059
0.4644
0.47523
0.48452
0.47523
0.47988
0.49071
0.47523
0.47988
0.47523
0.47988
0.47988
0.47523
0.47988
0.47988
0.47059
0.4644
0.47059
0.4644
0.47523
0.47988
0.49071
0.47988
0.47988
0.47523
0.4644
0.45975
0.47059
0.47988
0.49071
0.49071
0.47523
0.47059
0.50929
0.5356
0.56966
0.58514
0.56966
0.55573
0.50929
0.49071
0.47523
0.45975
0.4644
0.45975
0.43963
0.43034
0.43963
0.41486
0.40402
0.41486
0.43034
0.43498
0.43963
0.45046
0.45511
0.44427
0.4644
0.4644
0.4644
0.45975
0.49071
0.48452
0.47988
0.52941
0.73065
0.90557
0.9257
0.57585
0.32972
0.30031
0.43034
0.5
0.55573
0.60062
0.62074
0.5805
0.54954
0.49536
0.45046
0.39938
0.34985
0.35449
0.33901
0.3452
0.32972
0.32508
0.32508
0.3096
0.30031
0.27399
0.26471
0.26006
0.24458
0.22446
0.20898
0.17957
0.18421
0.16409
0.15944
0.17492
0.18421
0.18421
0.2291
0.28947
0.33901
0.35913
0.37461
0.43963
0.47059
0.5
0.52477
0.5356
0.52941
0.56037
0.56037
0.56037
0.56502
0.56966
0.54025
0.54489
0.52012
0.5356
0.52477
0.54025
0.52941
0.51548
0.50929
0.50929
0.51548
0.52012
0.49071
0.5
0.49071
0.50929
0.52012
0.50929
0.54489
0.57585
0.61455
0.60062
0.58514
0.54954
0.52012
0.50464
0.49071
0.47059
0.47523
0.45511
0.45975
0.41486
0.41486
0.43963
0.45511
0.45046
0.45975
0.4644
0.45975
0.48452
0.45511
0.47059
0.48452
0.49071
0.45975
0.49536
0.50929
0.51548
0.50929
0.58514
0.78019
0.93034
0.8452
0.54489
0.3096
0.27399
0.42415
0.54489
0.60062
0.64551
0.66563
0.62074
0.59598
0.5356
0.47059
0.41486
0.38545
0.36997
0.35449
0.3452
0.33901
0.3452
0.33437
0.32508
0.32508
0.30495
0.28483
0.26935
0.24923
0.22446
0.19969
0.18421
0.16409
0.14861
0.12848
0.14396
0.16873
0.17957
0.21981
0.28019
0.31889
0.36997
0.43034
0.5
0.5805
0.68111
0.78019
0.83591
0.87616
0.73065
0.30031
0.15944
0.26471
0.41486
0.50929
0.56966
0.6548
0.69505
0.68576
0.70588
0.63003
0.54489
0.50464
0.47059
0.45975
0.45511
0.4644
0.47059
0.47988
0.49536
0.5356
0.54489
0.52941
0.50464
0.45511
0.43498
0.43034
0.4195
0.43498
0.43963
0.43034
0.42415
0.43498
0.44427
0.47523
0.50464
0.52477
0.55573
0.55573
0.56037
0.56966
0.56037
0.56037
0.56037
0.55573
0.54954
0.54489
0.52477
0.51548
0.50464
0.50929
0.50929
0.49536
0.5
0.50464
0.50929
0.49536
0.48452
0.48452
0.49071
0.49071
0.47988
0.47988
0.47523
0.4644
0.47059
0.47523
0.47988
0.49071
0.49071
0.47059
0.47059
0.4644
0.47988
0.49071
0.4644
0.47059
0.49071
0.49536
0.49071
0.5
0.47523
0.47523
0.48452
0.48452
0.49071
0.48452
0.48452
0.49071
0.5
0.49536
0.5
0.49071
0.48452
0.4644
0.47059
0.49071
0.48452
0.47988
0.4644
0.48452
0.49071
0.47523
0.49071
0.47523
0.48452
0.49071
0.49071
0.48452
0.47523
0.47059
0.47523
0.49071
0.49071
0.47988
0.47523
0.49071
0.47988
0.47523
0.49536
0.50929
0.51548
0.56502
0.58978
0.60062
0.60526
0.54489
0.50464
0.48452
0.47059
0.45511
0.47523
0.48452
0.41486
0.40402
0.41022
0.41486
0.43498
0.45511
0.45975
0.43963
0.4644
0.42415
0.43498
0.45511
0.47523
0.47988
0.47059
0.47988
0.45975
0.4644
0.48452
0.67028
0.90557
0.97059
0.62539
0.3452
0.30031
0.42415
0.48452
0.55573
0.5805
0.63003
0.5805
0.59598
0.5
0.45046
0.41022
0.39474
0.3452
0.33901
0.35449
0.32508
0.32508
0.32508
0.33901
0.31424
0.30031
0.26935
0.27399
0.26006
0.23994
0.2291
0.21362
0.19505
0.17957
0.17492
0.15944
0.17492
0.20898
0.23375
0.28947
0.33901
0.37461
0.41022
0.45046
0.49536
0.5
0.49071
0.5356
0.57585
0.56502
0.56966
0.56037
0.57585
0.56037
0.56966
0.58978
0.52941
0.50929
0.50464
0.5
0.50929
0.50464
0.52941
0.56037
0.54025
0.49071
0.47988
0.50464
0.52012
0.47059
0.52012
0.56966
0.60526
0.60062
0.60526
0.52477
0.50464
0.52477
0.47059
0.4644
0.49071
0.45975
0.43963
0.43498
0.44427
0.4644
0.4644
0.4644
0.45975
0.45046
0.4644
0.47988
0.49071
0.5
0.48452
0.47988
0.4644
0.47988
0.51548
0.52012
0.50929
0.54489
0.73529
0.93653
0.98142
0.66563
0.43498
0.36533
0.50929
0.56966
0.65015
0.69969
0.73065
0.69505
0.61455
0.52477
0.44427
0.38545
0.35913
0.35913
0.34985
0.3452
0.31889
0.32972
0.33437
0.32508
0.31889
0.30031
0.27399
0.26006
0.26006
0.23994
0.20433
0.17957
0.15944
0.1548
0.14396
0.1548
0.17492
0.22446
0.26006
0.3096
0.34985
0.38545
0.43034
0.45975
0.49071
0.52941
0.54025
0.5356
0.55573
0.55573
0.56037
0.5805
0.60991
0.67028
0.7709
0.79102
0.79567
0.71053
0.34985
0.21362
0.39009
0.45046
0.44427
0.52477
0.62074
0.69969
0.6548
0.62074
0.59598
0.54954
0.5356
0.55573
0.56037
0.54025
0.49536
0.45975
0.4644
0.43498
0.43034
0.41486
0.39938
0.37461
0.36533
0.35449
0.34985
0.36533
0.36997
0.39009
0.40402
0.41486
0.44427
0.4644
0.48452
0.50464
0.52012
0.5356
0.54025
0.54489
0.54954
0.54489
0.55573
0.55573
0.54954
0.5356
0.5356
0.52477
0.52012
0.52012
0.52012
0.50929
0.50929
0.51548
0.50929
0.50464
0.52012
0.50464
0.49071
0.49536
0.50464
0.50464
0.50929
0.5
0.49536
0.5
0.5
0.50464
0.50464
0.49536
0.49536
0.48452
0.50929
0.50929
0.49536
0.47059
0.49071
0.49536
0.49071
0.49071
0.49071
0.49071
0.5
0.49071
0.49071
0.48452
0.49536
0.49071
0.48452
0.48452
0.49071
0.49071
0.5
0.49071
0.49071
0.5
0.49071
0.47523
0.49536
0.49071
0.47988
0.50464
0.48452
0.49071
0.47988
0.49071
0.49071
0.49071
0.47988
0.48452
0.47059
0.50929
0.51548
0.50464
0.56037
0.60991
0.59598
0.5805
0.55573
0.52941
0.51548
0.47059
0.45046
0.43963
0.43963
0.4195
0.41022
0.43034
0.41486
0.43963
0.42415
0.4195
0.44427
0.43963
0.43498
0.42415
0.4644
0.45511
0.44427
0.47059
0.49071
0.47988
0.49071
0.55573
0.69969
0.8452
0.88545
0.58978
0.31424
0.23375
0.36997
0.45511
0.56502
0.62074
0.65015
0.62074
0.58978
0.54025
0.49071
0.41022
0.35449
0.3452
0.32508
0.32972
0.31889
0.32972
0.3096
0.31424
0.30031
0.29412
0.27399
0.25387
0.25387
0.21981
0.20898
0.21362
0.19505
0.17957
0.16873
0.18421
0.16873
0.19505
0.2291
0.26471
0.30031
0.33437
0.39009
0.4195
0.45046
0.49536
0.50929
0.51548
0.56037
0.54025
0.54954
0.56037
0.54025
0.55573
0.56037
0.54954
0.54489
0.5356
0.5356
0.5356
0.5356
0.54954
0.52941
0.50929
0.50929
0.50929
0.50929
0.51548
0.5356
0.52941
0.54025
0.56966
0.60062
0.5805
0.57585
0.52477
0.49536
0.49536
0.48452
0.4644
0.4644
0.4644
0.45511
0.43034
0.43963
0.45046
0.45511
0.4644
0.47059
0.4644
0.47059
0.47523
0.4644
0.47523
0.49071
0.47523
0.4644
0.49071
0.52941
0.5356
0.52477
0.54489
0.69505
0.8808
0.93653
0.69505
0.41022
0.30495
0.43498
0.52477
0.59598
0.63003
0.67492
0.66099
0.63467
0.54489
0.47059
0.40402
0.36997
0.36997
0.37461
0.35449
0.3452
0.33437
0.32508
0.32508
0.31889
0.32508
0.28947
0.27399
0.25387
0.23994
0.21362
0.18885
0.1548
0.13467
0.12848
0.13467
0.14861
0.17957
0.20433
0.24458
0.28947
0.3452
0.39474
0.45046
0.48452
0.51548
0.5356
0.56037
0.56502
0.57585
0.5805
0.58514
0.56502
0.56502
0.57585
0.61455
0.68111
0.76006
0.77554
0.81579
0.82043
0.41486
0.21362
0.35449
0.4644
0.47059
0.54489
0.61455
0.6904
0.69505
0.66563
0.6548
0.58978
0.52941
0.47988
0.43963
0.43498
0.40402
0.38545
0.39938
0.39009
0.36533
0.33901
0.32508
0.31889
0.31889
0.31424
0.34985
0.35449
0.31424
0.3452
0.34985
0.36533
0.39009
0.4195
0.43963
0.45975
0.48452
0.50464
0.52012
0.5356
0.5356
0.5356
0.54025
0.5356
0.55573
0.54489
0.5356
0.52941
0.54954
0.52012
0.50464
0.52477
0.51548
0.49536
0.5
0.50929
0.50929
0.5
0.50464
0.49071
0.49071
0.48452
0.49071
0.50464
0.50929
0.47523
0.47059
0.47523
0.47059
0.49071
0.49071
0.49071
0.48452
0.49536
0.50929
0.48452
0.47988
0.49071
0.52941
0.47988
0.47059
0.47988
0.48452
0.50464
0.5
0.50929
0.49071
0.47988
0.49071
0.50464
0.47523
0.47988
0.47523
0.52012
0.47523
0.4644
0.48452
0.50929
0.50464
0.49071
0.4644
0.45975
0.49071
0.5
0.49071
0.47988
0.50929
0.49071
0.49536
0.47988
0.50464
0.52477
0.59598
0.60526
0.58514
0.57585
0.55573
0.52477
0.5356
0.45975
0.43963
0.4644
0.43963
0.43034
0.45046
0.42415
0.43498
0.43034
0.42415
0.45975
0.45511
0.49071
0.4644
0.44427
0.45046
0.47523
0.47059
0.48452
0.4644
0.48452
0.50929
0.5356
0.69505
0.87616
0.91022
0.54489
0.28947
0.25387
0.39009
0.49071
0.5805
0.60991
0.60526
0.59598
0.62074
0.50929
0.45511
0.39009
0.39474
0.34985
0.32972
0.33437
0.33901
0.30495
0.30031
0.31424
0.29412
0.3096
0.27399
0.26935
0.28483
0.21362
0.20433
0.19505
0.17492
0.15944
0.16409
0.17492
0.17957
0.19969
0.2291
0.26471
0.30031
0.34985
0.39938
0.43498
0.47059
0.50929
0.50464
0.52477
0.56037
0.54025
0.5356
0.54489
0.55573
0.56966
0.56037
0.54489
0.54025
0.5356
0.56037
0.55573
0.5356
0.54025
0.50929
0.51548
0.50929
0.52012
0.52012
0.51548
0.52477
0.5356
0.56966
0.59598
0.60526
0.59598
0.55573
0.50929
0.50929
0.5
0.47988
0.47523
0.49071
0.45975
0.43498
0.45046
0.4644
0.43963
0.45046
0.45975
0.43963
0.43963
0.45046
0.47988
0.49536
0.49071
0.48452
0.47988
0.49071
0.50464
0.52941
0.52012
0.52477
0.58514
0.7709
0.94118
0.9613
0.62539
0.37461
0.31889
0.50464
0.56502
0.64087
0.6548
0.66563
0.64551
0.59598
0.51548
0.44427
0.39938
0.38545
0.37926
0.36997
0.36997
0.3452
0.33901
0.3452
0.3096
0.30495
0.31889
0.30031
0.26935
0.25387
0.23994
0.20898
0.17957
0.15944
0.14861
0.13467
0.12848
0.14396
0.18421
0.2291
0.26935
0.31889
0.36997
0.41486
0.47988
0.49071
0.51548
0.54025
0.5805
0.59598
0.58978
0.65015
0.72601
0.78638
0.82043
0.85139
0.66563
0.27399
0.19969
0.40402
0.4644
0.52477
0.60991
0.6904
0.72601
0.68111
0.63003
0.58514
0.52477
0.50464
0.5
0.49536
0.52941
0.5356
0.50464
0.4644
0.43498
0.43963
0.43963
0.40402
0.39474
0.37461
0.35913
0.32972
0.32508
0.3452
0.35913
0.37461
0.41022
0.44427
0.4644
0.47059
0.49071
0.51548
0.5356
0.5356
0.54025
0.54954
0.56037
0.54025
0.54025
0.56037
0.54489
0.54025
0.5356
0.5356
0.50929
0.52012
0.52012
0.5
0.49071
0.49071
0.51548
0.52012
0.49536
0.49071
0.49536
0.49071
0.50464
0.50929
0.49071
0.47988
0.48452
0.47988
0.49071
0.48452
0.49071
0.48452
0.49536
0.5
0.50929
0.49071
0.49071
0.49536
0.47988
0.48452
0.49071
0.48452
0.49071
0.5
0.49536
0.48452
0.47988
0.5
0.49071
0.49071
0.49071
0.49071
0.49536
0.49071
0.49071
0.49536
0.48452
0.49071
0.48452
0.5
0.49071
0.47988
0.49071
0.48452
0.47988
0.47523
0.47988
0.48452
0.48452
0.49071
0.49536
0.47988
0.49071
0.50929
0.50464
0.50464
0.52477
0.56502
0.58514
0.59598
0.56502
0.52012
0.5
0.49071
0.47988
0.4644
0.45511
0.43963
0.42415
0.41486
0.4195
0.42415
0.43963
0.45046
0.44427
0.4644
0.44427
0.45046
0.45975
0.4644
0.4644
0.45975
0.49071
0.50464
0.49071
0.49071
0.55573
0.74613
0.92105
0.9257
0.54954
0.31424
0.28947
0.45046
0.50929
0.5805
0.60526
0.65015
0.63467
0.58978
0.51548
0.45975
0.39938
0.36997
0.35449
0.33901
0.33437
0.31889
0.32508
0.32972
0.3096
0.3096
0.30031
0.28019
0.26471
0.23994
0.21981
0.19969
0.20433
0.17492
0.15944
0.16409
0.15944
0.16409
0.19505
0.23994
0.28483
0.32508
0.36533
0.40402
0.45046
0.48452
0.51548
0.54025
0.54954
0.56037
0.56037
0.56037
0.56966
0.56037
0.55573
0.54489
0.5356
0.54954
0.5356
0.52012
0.50929
0.52477
0.51548
0.50464
0.50929
0.50929
0.50929
0.50929
0.49071
0.5
0.50464
0.52477
0.54025
0.57585
0.60526
0.58978
0.54954
0.5
0.49071
0.49071
0.48452
0.47523
0.4644
0.45975
0.43963
0.43498
0.47523
0.43963
0.44427
0.4644
0.47059
0.43963
0.47523
0.49536
0.48452
0.47988
0.49071
0.48452
0.47988
0.52012
0.52477
0.50464
0.52012
0.62539
0.80031
0.97678
0.87616
0.61455
0.40402
0.39474
0.54954
0.60062
0.68111
0.72601
0.73994
0.69969
0.58978
0.50929
0.44427
0.39938
0.36533
0.36997
0.37461
0.32972
0.32508
0.33901
0.32508
0.33437
0.33901
0.32508
0.27399
0.26471
0.28019
0.21981
0.20433
0.16873
0.15944
0.13932
0.14396
0.13467
0.18421
0.22446
0.26471
0.33901
0.3452
0.38545
0.45975
0.45046
0.49536
0.52477
0.56502
0.5805
0.63467
0.64087
0.72601
0.79102
0.78638
0.85139
0.73529
0.3452
0.2291
0.35449
0.39474
0.47523
0.56502
0.63003
0.70588
0.66563
0.62074
0.56966
0.52012
0.50929
0.52012
0.50929
0.5356
0.55573
0.56966
0.50929
0.48452
0.4644
0.45975
0.44427
0.43034
0.43034
0.41486
0.40402
0.38545
0.36997
0.37926
0.37461
0.41486
0.44427
0.4644
0.49071
0.5
0.50929
0.51548
0.55573
0.56037
0.52012
0.52477
0.50929
0.51548
0.52012
0.52012
0.52477
0.50464
0.49071
0.47988
0.48452
0.49071
0.50929
0.5
0.49071
0.48452
0.49071
0.49071
0.48452
0.49071
0.49071
0.47059
0.47988
0.47059
0.47988
0.47523
0.4644
0.47988
0.48452
0.49071
0.47523
0.49071
0.5
0.47523
0.47988
0.48452
0.4644
0.4644
0.47988
0.49071
0.49071
0.49071
0.49071
0.48452
0.5
0.47988
0.4644
0.47523
0.48452
0.47523
0.45975
0.4644
0.48452
0.49071
0.48452
0.47988
0.49071
0.47988
0.47988
0.47988
0.47523
0.4644
0.47059
0.4644
0.4644
0.4644
0.47523
0.47523
0.47988
0.48452
0.49071
0.49536
0.45046
0.44427
0.4644
0.47059
0.49071
0.50929
0.55573
0.5805
0.57585
0.56037
0.51548
0.49536
0.47523
0.4644
0.45975
0.45511
0.43498
0.4195
0.41486
0.41486
0.4195
0.43034
0.4195
0.43034
0.43498
0.43963
0.44427
0.43963
0.43498
0.44427
0.45511
0.45046
0.47523
0.49071
0.45511
0.49536
0.68576
0.87152
0.91022
0.58514
0.33437
0.28019
0.41022
0.47988
0.56037
0.59598
0.63003
0.60991
0.58514
0.52012
0.45046
0.39009
0.36997
0.35913
0.33901
0.32508
0.32972
0.31889
0.31424
0.31889
0.27399
0.26471
0.26471
0.25387
0.24458
0.22446
0.19505
0.17492
0.15944
0.15944
0.1548
0.14861
0.1548
0.17957
0.21362
0.25387
0.30031
0.33901
0.37461
0.41022
0.45511
0.49071
0.51548
0.52477
0.54025
0.54954
0.54489
0.56037
0.55573
0.54954
0.54489
0.54025
0.5356
0.5356
0.51548
0.52012
0.5356
0.50464
0.50929
0.49536
0.49536
0.49071
0.50464
0.5
0.50929
0.49536
0.51548
0.52941
0.5356
0.56502
0.59598
0.60526
0.57585
0.52012
0.52477
0.50929
0.47988
0.48452
0.47523
0.48452
0.44427
0.44427
0.45046
0.43034
0.45046
0.43963
0.4644
0.45975
0.4644
0.47523
0.47988
0.47523
0.47988
0.4644
0.47523
0.5
0.50929
0.50464
0.52941
0.62074
0.79102
0.93653
0.80495
0.52012
0.31889
0.30031
0.45975
0.54954
0.60991
0.63003
0.6548
0.63003
0.58978
0.52477
0.45046
0.40402
0.36533
0.36533
0.33901
0.35913
0.33437
0.32508
0.32972
0.31424
0.30031
0.28947
0.27399
0.25387
0.24923
0.20898
0.18421
0.16409
0.14396
0.12384
0.11455
0.12384
0.12384
0.15944
0.20898
0.24923
0.31424
0.34985
0.39474
0.47059
0.49071
0.4644
0.50464
0.57585
0.60526
0.68111
0.78638
0.79102
0.82043
0.72601
0.33901
0.18421
0.34985
0.48452
0.51548
0.58514
0.66099
0.6904
0.71517
0.6548
0.62539
0.55573
0.5
0.47523
0.47523
0.48452
0.5
0.52477
0.51548
0.49536
0.43963
0.41486
0.39474
0.38545
0.39009
0.36533
0.34985
0.33437
0.32508
0.33437
0.34985
0.36997
0.39474
0.42415
0.45046
0.47059
0.49071
0.50464
0.52941
0.54954
0.56037
0.55573
0.54954
0.56502
0.54954
0.5356
0.52941
0.52012
0.52941
0.52012
0.51548
0.52477
0.51548
0.50464
0.50929
0.50929
0.50464
0.5
0.5
0.49071
0.49071
0.50464
0.48452
0.47988
0.49071
0.49071
0.49071
0.49071
0.49071
0.49071
0.49536
0.49071
0.49071
0.49071
0.49071
0.49071
0.49536
0.5
0.5
0.49536
0.49071
0.50929
0.47988
0.49071
0.49071
0.48452
0.48452
0.49071
0.49071
0.48452
0.49071
0.49536
0.49536
0.49071
0.48452
0.47988
0.49071
0.47523
0.47059
0.47988
0.49071
0.49071
0.49071
0.49071
0.48452
0.47523
0.48452
0.49071
0.47988
0.48452
0.49071
0.47988
0.47988
0.48452
0.47523
0.49071
0.50464
0.51548
0.54025
0.5805
0.58514
0.5805
0.54954
0.50464
0.49536
0.47988
0.4644
0.4644
0.45975
0.43498
0.41486
0.41022
0.42415
0.43034
0.43498
0.43034
0.43963
0.43963
0.43963
0.45046
0.45511
0.45975
0.45046
0.45046
0.47988
0.49071
0.47523
0.4644
0.5805
0.78638
0.93653
0.79102
0.49071
0.28019
0.33437
0.45046
0.52012
0.5805
0.59598
0.62539
0.60526
0.55573
0.49071
0.43034
0.38545
0.36997
0.34985
0.33901
0.32972
0.32508
0.31889
0.31424
0.31889
0.29412
0.28019
0.27399
0.25387
0.23994
0.21362
0.19505
0.17957
0.16873
0.16409
0.15944
0.15944
0.17957
0.19969
0.23994
0.28019
0.32508
0.35913
0.41022
0.44427
0.47988
0.50929
0.52477
0.52012
0.54489
0.56037
0.56502
0.56037
0.56037
0.55573
0.54489
0.54025
0.52477
0.52012
0.5356
0.52941
0.52477
0.50929
0.50929
0.50929
0.50464
0.50464
0.49536
0.5
0.5
0.49536
0.50464
0.5
0.54025
0.58978
0.60526
0.60062
0.56966
0.5356
0.51548
0.5
0.49071
0.49071
0.49071
0.47523
0.44427
0.43963
0.43963
0.44427
0.45046
0.4644
0.4644
0.47523
0.47988
0.47988
0.47523
0.48452
0.49071
0.47988
0.49071
0.50464
0.52012
0.50929
0.50464
0.56037
0.76006
0.94582
0.97059
0.6548
0.41486
0.36533
0.52477
0.58514
0.66563
0.71053
0.73994
0.70588
0.63467
0.52941
0.44427
0.39938
0.37926
0.36997
0.35913
0.36533
0.35449
0.33901
0.33437
0.33901
0.31889
0.3096
0.30031
0.27399
0.25387
0.22446
0.19969
0.18421
0.15944
0.13467
0.13467
0.14396
0.15944
0.19505
0.23994
0.28019
0.32508
0.40402
0.49536
0.60062
0.71981
0.78638
0.8452
0.63467
0.22446
0.1548
0.26471
0.35449
0.41022
0.47523
0.61455
0.67492
0.69505
0.68576
0.67028
0.58978
0.52012
0.49071
0.49071
0.49071
0.48452
0.48452
0.48452
0.49071
0.5
0.50464
0.5
0.54025
0.58514
0.63003
0.62539
0.60526
0.57585
0.55573
0.56966
0.5805
0.5805
0.58978
0.57585
0.56037
0.54025
0.54489
0.5356
0.5356
0.54025
0.5356
0.52012
0.50929
0.50464
0.49536
0.49071
0.49071
0.47988
0.47988
0.47523
0.47059
0.4644
0.4644
0.47059
0.47523
0.47059
0.45975
0.47059
0.48452
0.47059
0.47988
0.47523
0.47988
0.49071
0.49071
0.47988
0.47523
0.4644
0.47988
0.49071
0.49071
0.49071
0.47523
0.47988
0.4644
0.47988
0.49071
0.48452
0.49071
0.49071
0.47988
0.47523
0.47988
0.47988
0.4644
0.47523
0.49071
0.47988
0.48452
0.49071
0.4644
0.45975
0.47988
0.47059
0.47523
0.47988
0.4644
0.47059
0.47523
0.4644
0.4644
0.45975
0.48452
0.47988
0.48452
0.45975
0.47988
0.49071
0.4644
0.4644
0.47523
0.4644
0.47059
0.47523
0.4644
0.47988
0.49071
0.47988
0.47988
0.47523
0.49071
0.47988
0.47523
0.4644
0.49071
0.49071
0.50464
0.56966
0.60062
0.58978
0.56502
0.5356
0.52012
0.48452
0.47059
0.45046
0.43034
0.41486
0.41022
0.40402
0.42415
0.43034
0.43498
0.42415
0.43498
0.42415
0.45046
0.43963
0.43963
0.45511
0.45975
0.44427
0.48452
0.49071
0.47523
0.47988
0.5805
0.7709
0.91022
0.76625
0.4644
0.26471
0.26006
0.42415
0.5
0.57585
0.60062
0.63467
0.62539
0.56966
0.49071
0.43498
0.38545
0.35913
0.3452
0.32508
0.32508
0.30031
0.31424
0.30031
0.29412
0.26935
0.26471
0.26006
0.25387
0.24923
0.22446
0.19505
0.19969
0.1548
0.16873
0.15944
0.15944
0.17957
0.18885
0.20898
0.24923
0.29412
0.33901
0.37461
0.41022
0.45975
0.49071
0.51548
0.52477
0.5356
0.54954
0.56037
0.54954
0.54489
0.56037
0.54489
0.54954
0.5356
0.54954
0.5356
0.52941
0.52477
0.52012
0.52477
0.52012
0.52477
0.50464
0.50929
0.50464
0.50929
0.52941
0.52477
0.54025
0.56966
0.58978
0.58514
0.56966
0.52941
0.50929
0.5
0.49071
0.49071
0.47523
0.45511
0.44427
0.44427
0.43963
0.43963
0.44427
0.43963
0.45511
0.45975
0.4644
0.4644
0.45975
0.4644
0.47988
0.49071
0.47523
0.47523
0.52012
0.52477
0.51548
0.52941
0.68576
0.87152
0.93653
0.72601
0.45046
0.34985
0.47523
0.55573
0.61455
0.64087
0.67492
0.6548
0.62539
0.54025
0.47059
0.41022
0.38545
0.36997
0.35913
0.35449
0.3452
0.33437
0.32508
0.32508
0.3096
0.30031
0.28947
0.26935
0.24923
0.2291
0.20433
0.17492
0.13932
0.13467
0.12384
0.1192
0.12848
0.14861
0.17957
0.22446
0.28019
0.32972
0.38545
0.43498
0.48452
0.52012
0.54489
0.56037
0.57585
0.5805
0.57585
0.56966
0.57585
0.56966
0.56502
0.56966
0.55573
0.54489
0.54489
0.54954
0.5356
0.5356
0.5356
0.52012
0.51548
0.50929
0.50929
0.50464
0.50929
0.50929
0.52477
0.5356
0.57585
0.60526
0.60526
0.56966
0.52012
0.50929
0.5
0.49071
0.48452
0.49071
0.4644
0.44427
0.43963
0.45046
0.45511
0.45975
0.45975
0.4644
0.47523
0.47523
0.49071
0.49071
0.48452
0.48452
0.48452
0.49536
0.5
0.50929
0.50929
0.51548
0.50929
0.74613
0.93653
0.99071
0.69505
0.4195
0.3452
0.47059
0.54954
0.63467
0.68111
0.71981
0.68576
0.62074
0.54025
0.47523
0.41486
0.37926
0.37461
0.36997
0.36533
0.35449
0.3452
0.34985
0.32508
0.31424
0.30495
0.29412
0.28019
0.26006
0.2291
0.20898
0.17957
0.1548
0.13467
0.12384
0.13932
0.1548
0.17957
0.20898
0.26006
0.3096
0.36997
0.41486
0.45046
0.49071
0.52012
0.55573
0.56966
0.5805
0.57585
0.57585
0.56966
0.5805
0.57585
0.56502
0.56037
0.54954
0.54489
0.54954
0.55573
0.5356
0.5356
0.52477
0.52012
0.51548
0.50929
0.50929
0.52012
0.5356
0.52941
0.52012
0.55573
0.58978
0.62074
0.62539
0.59598
0.54489
0.52477
0.52477
0.50929
0.51548
0.49536
0.47523
0.4644
0.45511
0.4644
0.45511
0.4644
0.47523
0.47523
0.48452
0.47988
0.49071
0.5
0.49536
0.49071
0.49071
0.49536
0.50929
0.52012
0.50929
0.50929
0.54954
0.72601
0.91641
0.97678
0.68576
0.41486
0.34985
0.47988
0.55573
0.63003
0.68111
0.73529
0.69505
0.61455
0.52941
0.45975
0.39938
0.39009
0.37461
0.36997
0.34985
0.35449
0.33901
0.32972
0.32508
0.31424
0.30031
0.29412
0.27399
0.26471
0.2291
0.20433
0.17957
0.1548
0.13932
0.13467
0.12848
0.13467
0.17957
0.21362
0.26471
0.32972
0.36533
0.41486
0.43963
0.49071
0.52477
0.54025
0.56037
0.56502
0.56502
0.56502
0.57585
0.56966
0.56966
0.56037
0.55573
0.54954
0.54489
0.5356
0.52941
0.54025
0.51548
0.52477
0.52941
0.50929
0.50929
0.50464
0.50464
0.50929
0.50929
0.50464
0.54025
0.58514
0.61455
0.60991
0.58978
0.54489
0.54025
0.52012
0.50929
0.50464
0.49071
0.47523
0.45975
0.44427
0.45046
0.4644
0.4644
0.4644
0.47523
0.47059
0.47523
0.47988
0.48452
0.49071
0.49536
0.48452
0.49071
0.50464
0.51548
0.50929
0.52477
0.50464
0.71517
0.88545
0.93034
0.6548
0.40402
0.33437
0.47988
0.56037
0.63467
0.68576
0.71981
0.68576
0.64087
0.55573
0.48452
0.39938
0.37461
0.38545
0.36997
0.35913
0.34985
0.32508
0.32508
0.32972
0.32508
0.3096
0.28947
0.26935
0.26006
0.2291
0.19969
0.16409
0.15944
0.1548
0.14861
0.13467
0.13932
0.16409
0.20898
0.25387
0.28947
0.34985
0.38545
0.44427
0.4644
0.5
0.52477
0.56037
0.57585
0.56966
0.56037
0.56966
0.56037
0.5805
0.5805
0.56037
0.55573
0.56502
0.55573
0.54954
0.55573
0.54489
0.55573
0.54025
0.52941
0.52012
0.5356
0.5356
0.56966
0.54025
0.52477
0.58514
0.60526
0.61455
0.62539
0.56502
0.55573
0.56502
0.50464
0.49536
0.5
0.48452
0.45975
0.43963
0.47523
0.48452
0.44427
0.47988
0.48452
0.4644
0.47988
0.49536
0.47059
0.47988
0.50464
0.47059
0.49071
0.48452
0.5356
0.54025
0.52012
0.5356
0.68576
0.86533
0.94118
0.73994
0.44427
0.32508
0.39938
0.47059
0.58514
0.63003
0.66099
0.68111
0.64087
0.5805
0.52941
0.45975
0.41486
0.36533
0.37461
0.38545
0.35449
0.35913
0.3452
0.33437
0.31889
0.30495
0.29412
0.32508
0.26471
0.24458
0.22446
0.20433
0.17957
0.14861
0.14396
0.15944
0.14396
0.17492
0.18885
0.21981
0.26935
0.31424
0.36533
0.4195
0.4644
0.49071
0.50929
0.54489
0.56966
0.56037
0.55573
0.56502
0.56037
0.56037
0.55573
0.56037
0.56037
0.56037
0.56502
0.54954
0.56502
0.57585
0.52941
0.52477
0.5356
0.52941
0.51548
0.5356
0.5356
0.55573
0.54954
0.5805
0.60526
0.60526
0.5805
0.51548
0.50929
0.5
0.48452
0.47988
0.47523
0.4644
0.43963
0.43963
0.43963
0.45511
0.47523
0.49071
0.44427
0.45046
0.4644
0.47523
0.47059
0.49071
0.49071
0.48452
0.49071
0.5
0.50929
0.50929
0.52012
0.54954
0.73994
0.91641
0.95666
0.66563
0.39938
0.33901
0.48452
0.54489
0.60062
0.62539
0.65015
0.63003
0.60062
0.5356
0.47988
0.4195
0.37926
0.36997
0.35913
0.34985
0.34985
0.3452
0.32972
0.33437
0.32972
0.3096
0.28483
0.27399
0.26471
0.24923
0.21362
0.18421
0.14861
0.13467
0.12848
0.13467
0.12848
0.1548
0.19505
0.25387
0.3096
0.35449
0.41486
0.4644
0.48452
0.52012
0.54954
0.56966
0.5805
0.5805
0.57585
0.59598
0.60062
0.58978
0.56966
0.56502
0.56037
0.55573
0.56037
0.56037
0.54025
0.54025
0.54025
0.54025
0.54489
0.52477
0.52477
0.52477
0.52941
0.52477
0.54954
0.5805
0.61455
0.60062
0.57585
0.5356
0.50464
0.49536
0.49536
0.47988
0.47523
0.48452
0.4644
0.44427
0.44427
0.45046
0.45046
0.45511
0.47523
0.47988
0.47059
0.47523
0.47988
0.48452
0.47988
0.49071
0.49071
0.50929
0.51548
0.50929
0.51548
0.50929
0.67028
0.88545
0.96594
0.76006
0.47988
0.3452
0.45511
0.52477
0.61455
0.65015
0.70588
0.68576
0.63467
0.54954
0.47523
0.41022
0.38545
0.36997
0.34985
0.3452
0.3452
0.34985
0.33437
0.32508
0.32508
0.31889
0.29412
0.27399
0.25387
0.2291
0.21362
0.19505
0.15944
0.14396
0.13467
0.13467
0.15944
0.18421
0.20433
0.26006
0.31424
0.36533
0.41022
0.45511
0.48452
0.51548
0.5356
0.54954
0.56502
0.5805
0.56502
0.56502
0.56966
0.56037
0.56037
0.54954
0.5356
0.54025
0.54489
0.54489
0.54025
0.5356
0.52941
0.52477
0.50929
0.50929
0.50929
0.50929
0.51548
0.52477
0.50929
0.54954
0.58978
0.62539
0.65015
0.58978
0.51548
0.5
0.52477
0.50929
0.5
0.48452
0.45046
0.44427
0.45511
0.4644
0.4644
0.4644
0.47523
0.48452
0.47988
0.49536
0.48452
0.47059
0.50929
0.48452
0.47988
0.49536
0.49071
0.5356
0.48452
0.50464
0.49536
0.71517
0.90557
0.96594
0.6548
0.39009
0.31889
0.45975
0.5
0.59598
0.66563
0.69969
0.69505
0.62539
0.54489
0.47523
0.41022
0.41486
0.34985
0.33437
0.37461
0.33437
0.32508
0.33901
0.30031
0.32508
0.3096
0.34985
0.26006
0.28947
0.21362
0.1548
0.15944
0.089783
0.10836
0.13932
0.094427
0.063467
0.1192
0.18421
0.25387
0.29412
0.44427
0.32972
0.38545
0.48452
0.48452
0.49071
0.56037
0.60526
0.58514
0.56966
0.61455
0.6548
0.51548
0.49536
0.54954
0.59598
0.50929
0.56037
0.49536
0.48452
0.52012
0.5
0.54954
0.54025
0.59598
0.50464
0.51548
0.50929
0.47523
0.54954
0.50464
0.58514
0.57585
0.60526
0.52012
0.51548
0.56037
0.49536
0.54025
0.52012
0.52941
0.45975
0.44427
0.47523
0.51548
0.52477
0.42415
0.47523
0.49071
0.47523
0.50929
0.5
0.56037
0.5805
0.48452
0.48452
0.49071
0.50929
0.5356
0.56966
0.58514
0.69969
0.89164
1.0155
0.80031
0.5
0.35913
0.45511
0.5356
0.64087
0.71981
0.68111
0.68576
0.64087
0.56502
0.50464
0.43498
0.41486
0.43034
0.37926
0.35913
0.35913
0.38545
0.39009
0.35449
0.36997
0.30495
0.31889
0.26471
0.25387
0.24458
0.22446
0.18885
0.19969
0.17492
0.14861
0.13932
0.16873
0.2291
0.19969
0.18885
0.26935
0.3452
0.37926
0.44427
0.49071
0.52941
0.56037
0.56037
0.58978
0.60526
0.60991
0.60526
0.58514
0.56966
0.56502
0.5805
0.56037
0.56966
0.54025
0.56037
0.57585
0.56966
0.5356
0.51548
0.52477
0.50929
0.5356
0.56966
0.5805
0.49071
0.52012
0.55573
0.58514
0.60062
0.56966
0.52477
0.5
0.50464
0.50929
0.50464
0.52012
0.49536
0.47059
0.4195
0.41486
0.43963
0.45511
0.47059
0.48452
0.49536
0.50929
0.47988
0.51548
0.49071
0.47059
0.49536
0.50464
0.5356
0.50464
0.49071
0.50464
0.58978
0.78638
1.0155
1.0356
0.58514
0.33901
0.31889
0.49071
0.58514
0.66563
0.66099
0.72601
0.68111
0.61455
0.54954
0.50464
0.39009
0.33901
0.33437
0.35449
0.3452
0.3452
0.34985
0.35913
0.32508
0.32972
0.32508
0.28947
0.26471
0.23994
0.24458
0.18885
0.15944
0.16409
0.13932
0.17492
0.1548
0.17492
0.20433
0.23375
0.28483
0.35449
0.40402
0.5356
0.6904
0.76625
0.85604
0.74613
0.31889
0.13932
0.24923
0.36533
0.41022
0.39474
0.56966
0.66099
0.71053
0.66099
0.67028
0.59598
0.52012
0.49071
0.50464
0.5356
0.54025
0.45511
0.49071
0.47059
0.45975
0.50929
0.5
0.49071
0.55573
0.62074
0.66563
0.63003
0.62539
0.58514
0.60526
0.58978
0.60526
0.64087
0.65015
0.54954
0.54025
0.5356
0.56037
0.5805
0.52941
0.56502
0.57585
0.50929
0.47059
0.45046
0.47059
0.49071
0.47988
0.49071
0.50464
0.45511
0.43963
0.4644
0.49071
0.43963
0.45046
0.43498
0.43034
0.41486
0.45975
0.47988
0.47059
0.47988
0.43498
0.47523
0.44427
0.43963
0.47523
0.49536
0.47059
0.45975
0.47059
0.43034
0.45511
0.4644
0.43498
0.5
0.5
0.48452
0.4644
0.45511
0.52012
0.48452
0.43963
0.4644
0.4644
0.49536
0.5
0.50464
0.50929
0.45511
0.45975
0.50929
0.47523
0.4644
0.48452
0.54954
0.51548
0.4644
0.44427
0.43034
0.45511
0.4644
0.47523
0.49071
0.49536
0.50929
0.50929
0.52941
0.56966
0.52012
0.42415
0.41022
0.43963
0.45046
0.4644
0.47988
0.49071
0.52941
0.48452
0.49536
0.5
0.4644
0.50929
0.54025
0.50929
0.52941
0.56037
0.5805
0.56502
0.56037
0.47523
0.4644
0.49536
0.50929
0.45511
0.43034
0.39938
0.39474
0.45046
0.43498
0.42415
0.40402
0.41486
0.4195
0.43963
0.49071
0.47988
0.45511
0.41486
0.41022
0.47059
0.49071
0.43963
0.45975
0.49071
0.67028
0.86068
0.93034
0.6548
0.37461
0.27399
0.37926
0.50464
0.54954
0.5356
0.61455
0.55573
0.54489
0.52012
0.47988
0.39474
0.36533
0.33437
0.32508
0.3452
0.31889
0.3452
0.28947
0.29412
0.30031
0.26006
0.28947
0.26935
0.23375
0.2291
0.24923
0.17492
0.12384
0.11455
0.13932
0.16409
0.17492
0.16409
0.20433
0.26471
0.33901
0.33901
0.39474
0.39009
0.4195
0.47059
0.54954
0.55573
0.50929
0.52477
0.54025
0.56037
0.5805
0.54025
0.5805
0.50464
0.50929
0.5
0.52477
0.56502
0.54025
0.5
0.50464
0.47988
0.49536
0.49071
0.50929
0.47988
0.5
0.52012
0.5356
0.50464
0.5356
0.60526
0.61455
0.5805
0.58514
0.54025
0.54489
0.49536
0.50929
0.48452
0.49071
0.4644
0.44427
0.42415
0.43963
0.41486
0.43963
0.45975
0.4644
0.43963
0.47059
0.49071
0.4644
0.45511
0.45975
0.47059
0.43963
0.47059
0.52941
0.50464
0.52477
0.5356
0.71981
0.88545
0.94582
0.64551
0.36997
0.30495
0.41022
0.52477
0.58978
0.64087
0.61455
0.60062
0.61455
0.55573
0.47523
0.39938
0.36533
0.36533
0.35449
0.37926
0.35449
0.3096
0.31889
0.3096
0.31424
0.28483
0.30495
0.31424
0.33901
0.18421
0.15944
0.14861
0.13932
0.13467
0.14396
0.16873
0.14396
0.16409
0.19505
0.2291
0.26935
0.31889
0.38545
0.41022
0.47523
0.54954
0.5356
0.50929
0.52477
0.54489
0.5356
0.58514
0.57585
0.5356
0.5356
0.56966
0.59598
0.52477
0.51548
0.52941
0.5356
0.52941
0.54025
0.54954
0.56502
0.50929
0.49071
0.52477
0.5356
0.50929
0.54025
0.56966
0.58514
0.56502
0.54489
0.5356
0.54025
0.49071
0.45975
0.49536
0.43963
0.45046
0.45511
0.41486
0.39474
0.42415
0.43034
0.45975
0.48452
0.51548
0.45511
0.43963
0.45046
0.44427
0.47988
0.50929
0.49536
0.43963
0.47059
0.52941
0.56037
0.48452
0.70588
0.91641
0.95046
0.6548
0.39009
0.31889
0.50464
0.50929
0.57585
0.60062
0.66099
0.67028
0.58514
0.50464
0.48452
0.43498
0.33901
0.33437
0.3452
0.35449
0.3452
0.34985
0.32972
0.38545
0.39474
0.24458
0.27399
0.28483
0.24458
0.25387
0.18885
0.14396
0.13467
0.18421
0.19969
0.083591
0.099071
0.16873
0.2291
0.27399
0.26006
0.32508
0.37926
0.47059
0.5
0.49536
0.5356
0.56502
0.60526
0.60991
0.5356
0.56502
0.60062
0.56502
0.56037
0.56966
0.56502
0.61455
0.56502
0.51548
0.50929
0.51548
0.54954
0.57585
0.52941
0.5
0.49071
0.5356
0.54489
0.54954
0.5356
0.58514
0.59598
0.62074
0.62539
0.5
0.49071
0.48452
0.5
0.52941
0.47523
0.43963
0.4644
0.47059
0.42415
0.45511
0.4644
0.43498
0.48452
0.48452
0.50929
0.47059
0.4644
0.49071
0.49536
0.5
0.49071
0.50929
0.52012
0.50464
0.50929
0.56502
0.69969
0.88545
0.95666
0.71981
0.43498
0.34985
0.49071
0.56502
0.66099
0.69505
0.69969
0.67028
0.61455
0.5356
0.47523
0.39474
0.37926
0.39474
0.3452
0.35449
0.3452
0.35449
0.32972
0.31889
0.33437
0.30031
0.3452
0.29412
0.24923
0.2291
0.19969
0.17492
0.14396
0.12848
0.12384
0.14861
0.17492
0.17957
0.23994
0.28947
0.3452
0.36997
0.39938
0.45511
0.47523
0.52941
0.58514
0.54025
0.52941
0.55573
0.62074
0.64551
0.52477
0.52012
0.52941
0.54489
0.5805
0.56037
0.54954
0.5356
0.5805
0.56502
0.47523
0.4644
0.47988
0.50929
0.52012
0.49071
0.5
0.51548
0.56502
0.59598
0.60526
0.62074
0.5805
0.56037
0.5356
0.52941
0.5356
0.49536
0.49071
0.49071
0.50464
0.51548
0.44427
0.40402
0.45511
0.4644
0.44427
0.4644
0.49071
0.50464
0.47059
0.49071
0.49071
0.49536
0.47988
0.50464
0.49536
0.51548
0.52941
0.48452
0.58514
0.80031
0.97059
0.86068
0.58978
0.37926
0.36533
0.47523
0.56502
0.64551
0.68111
0.69969
0.66099
0.59598
0.49536
0.43963
0.41022
0.40402
0.37926
0.39009
0.3452
0.35449
0.37461
0.33437
0.30495
0.30031
0.31889
0.29412
0.28947
0.25387
0.24923
0.19969
0.18421
0.14396
0.1548
0.13467
0.15944
0.1548
0.20433
0.21981
0.27399
0.33901
0.37926
0.43034
0.47988
0.50464
0.5356
0.52941
0.54954
0.57585
0.55573
0.5805
0.55573
0.5805
0.60991
0.54489
0.54025
0.51548
0.52941
0.5356
0.52012
0.52477
0.5356
0.52012
0.52012
0.51548
0.54489
0.51548
0.50929
0.5356
0.52477
0.49536
0.54489
0.61455
0.63467
0.63003
0.5805
0.5356
0.54489
0.51548
0.52477
0.49071
0.49071
0.47059
0.43034
0.43963
0.43034
0.43498
0.49071
0.45975
0.45975
0.45511
0.48452
0.4644
0.49536
0.47523
0.51548
0.47988
0.4644
0.49536
0.52012
0.54954
0.50929
0.60526
0.80495
0.91641
0.87152
0.56037
0.30495
0.28483
0.39009
0.52012
0.58978
0.60526
0.6548
0.68576
0.65015
0.52012
0.4644
0.40402
0.34985
0.35913
0.37461
0.32972
0.32508
0.35449
0.36533
0.36997
0.30031
0.32508
0.3096
0.35449
0.23375
0.19969
0.19505
0.17492
0.18421
0.16409
0.14861
0.1548
0.18421
0.19969
0.2291
0.24458
0.29412
0.3452
0.4195
0.49071
0.4644
0.51548
0.56037
0.58978
0.5356
0.56037
0.56502
0.56037
0.62074
0.52941
0.52012
0.56502
0.5805
0.56502
0.50929
0.54025
0.56037
0.58978
0.56502
0.51548
0.52477
0.51548
0.5356
0.52941
0.5356
0.56966
0.58514
0.60526
0.62074
0.60991
0.56037
0.5356
0.50464
0.51548
0.48452
0.47059
0.48452
0.49071
0.44427
0.47059
0.45511
0.4195
0.43963
0.45046
0.48452
0.47523
0.4644
0.47059
0.49536
0.49071
0.48452
0.49536
0.50464
0.52477
0.51548
0.55573
0.52012
0.50929
0.81115
0.96594
0.82043
0.54025
0.31889
0.39009
0.4644
0.52477
0.58514
0.62539
0.67028
0.63003
0.58514
0.52012
0.45975
0.41022
0.41486
0.4195
0.33901
0.3452
0.3452
0.34985
0.35449
0.32972
0.33901
0.29412
0.28019
0.26471
0.26471
0.24458
0.18885
0.19505
0.15944
0.1192
0.12848
0.13467
0.15944
0.17957
0.19505
0.26006
0.31424
0.36997
0.41486
0.47988
0.54025
0.54954
0.52941
0.56966
0.60062
0.5805
0.58978
0.5805
0.60991
0.57585
0.54954
0.58514
0.54954
0.52941
0.57585
0.54954
0.54025
0.58978
0.50929
0.52477
0.52012
0.50929
0.54954
0.55573
0.50929
0.5356
0.52012
0.63003
0.58978
0.56037
0.57585
0.52012
0.52941
0.50464
0.52477
0.47059
0.41486
0.45511
0.47059
0.41486
0.42415
0.42415
0.43963
0.47988
0.50929
0.4644
0.45046
0.44427
0.49536
0.45975
0.45511
0.45975
0.47988
0.49071
0.51548
0.54025
0.58514
0.56502
0.68576
0.86068
0.93034
0.66099
0.41486
0.3452
0.52012
0.60062
0.5805
0.59598
0.65015
0.63003
0.5805
0.52477
0.49071
0.43034
0.41486
0.43034
0.39474
0.35913
0.3452
0.36997
0.33437
0.33901
0.3096
0.32972
0.31889
0.28947
0.29412
0.24923
0.20433
0.19505
0.17492
0.13932
0.12848
0.13467
0.15944
0.19505
0.23375
0.28019
0.33437
0.39009
0.41486
0.45975
0.49071
0.54025
0.56502
0.57585
0.59598
0.57585
0.56502
0.5805
0.60062
0.56502
0.54954
0.54489
0.54489
0.56037
0.55573
0.54954
0.54489
0.55573
0.5356
0.54489
0.5356
0.54954
0.56037
0.52012
0.5356
0.56966
0.60526
0.60526
0.60062
0.56502
0.52012
0.50929
0.52012
0.47523
0.44427
0.45975
0.43498
0.41486
0.41022
0.43034
0.45046
0.45511
0.43963
0.4644
0.47523
0.47059
0.47988
0.47523
0.47059
0.49071
0.49536
0.50929
0.50464
0.49536
0.48452
0.49536
0.54954
0.74613
0.95666
1.0217
0.72601
0.45046
0.36997
0.50464
0.54954
0.62539
0.67492
0.71517
0.68111
0.61455
0.52941
0.45975
0.40402
0.37926
0.36997
0.36533
0.36997
0.36533
0.3452
0.32972
0.32508
0.32508
0.31424
0.29412
0.26935
0.24923
0.22446
0.21362
0.17957
0.17492
0.14861
0.13467
0.13932
0.1548
0.18421
0.24458
0.30495
0.33437
0.37461
0.43498
0.47523
0.50464
0.52941
0.54489
0.54954
0.56966
0.5805
0.54025
0.5356
0.54025
0.54489
0.5356
0.54954
0.54025
0.5356
0.5356
0.51548
0.52941
0.54025
0.50929
0.49071
0.48452
0.50464
0.5
0.50929
0.52941
0.54489
0.54954
0.56966
0.59598
0.60526
0.59598
0.57585
0.5356
0.50929
0.5
0.50929
0.49071
0.45975
0.44427
0.44427
0.4644
0.45975
0.45975
0.4644
0.48452
0.47523
0.4644
0.47988
0.4644
0.45975
0.49071
0.49071
0.47523
0.4644
0.5
0.51548
0.50929
0.50464
0.60991
0.81115
0.96594
0.82508
0.5356
0.33437
0.41022
0.49536
0.56966
0.63467
0.68576
0.70588
0.67028
0.57585
0.49536
0.43034
0.39009
0.35913
0.35449
0.35913
0.35449
0.35913
0.33901
0.32508
0.31889
0.33437
0.30031
0.27399
0.26006
0.23375
0.22446
0.19969
0.17492
0.15944
0.14861
0.13932
0.16873
0.19969
0.20433
0.24923
0.26935
0.3452
0.39009
0.43498
0.47059
0.51548
0.52477
0.54954
0.56037
0.56502
0.57585
0.58978
0.56037
0.54954
0.56037
0.56037
0.54954
0.56037
0.54489
0.52941
0.52941
0.52477
0.52941
0.52941
0.5356
0.50464
0.49536
0.50929
0.50929
0.51548
0.54025
0.58514
0.62539
0.63467
0.60526
0.56966
0.54489
0.54025
0.52477
0.5356
0.48452
0.47988
0.45975
0.44427
0.43963
0.45975
0.45975
0.47988
0.49071
0.47988
0.5
0.47059
0.4644
0.47988
0.49071
0.47523
0.47988
0.49071
0.52477
0.54025
0.54025
0.5356
0.60526
0.80031
0.93034
0.80495
0.51548
0.31889
0.39474
0.49536
0.56966
0.63003
0.68576
0.74613
0.66563
0.5805
0.52012
0.45511
0.40402
0.39474
0.35913
0.34985
0.37461
0.3452
0.36533
0.32972
0.35449
0.3096
0.30031
0.29412
0.27399
0.27399
0.22446
0.19969
0.19969
0.15944
0.1548
0.14861
0.15944
0.16409
0.19505
0.25387
0.28019
0.31889
0.37461
0.4195
0.47523
0.5
0.54489
0.52477
0.54025
0.56037
0.56966
0.56502
0.56966
0.5805
0.57585
0.56037
0.54489
0.56037
0.5356
0.54489
0.55573
0.52477
0.54025
0.50929
0.54025
0.52012
0.50464
0.49071
0.52477
0.54489
0.54954
0.52477
0.58514
0.60062
0.62074
0.56037
0.52012
0.54954
0.47988
0.45975
0.4644
0.4644
0.4644
0.47523
0.42415
0.45511
0.43498
0.43034
0.43963
0.44427
0.47059
0.47988
0.49071
0.48452
0.47988
0.49071
0.4644
0.48452
0.49536
0.50929
0.50464
0.50929
0.58978
0.77554
0.93653
0.84056
0.57585
0.34985
0.31889
0.45046
0.52477
0.60526
0.68576
0.64551
0.60991
0.57585
0.52941
0.50929
0.4195
0.39009
0.39474
0.37461
0.39474
0.36533
0.33901
0.3452
0.35449
0.32972
0.36533
0.30495
0.25387
0.23994
0.21362
0.23375
0.1548
0.15944
0.12848
0.16873
0.10372
0.094427
0.20433
0.23375
0.21362
0.28483
0.39009
0.4195
0.41022
0.49071
0.45511
0.52012
0.51548
0.5805
0.5805
0.60526
0.57585
0.59598
0.56037
0.5805
0.51548
0.5356
0.5356
0.54954
0.56966
0.57585
0.5356
0.54954
0.56037
0.5805
0.49536
0.5
0.50929
0.52477
0.52012
0.57585
0.59598
0.60526
0.60062
0.60526
0.5
0.4644
0.5
0.47059
0.41022
0.36533
0.41486
0.37926
0.35913
0.41486
0.43498
0.38545
0.41022
0.45975
0.51548
0.52477
0.49071
0.49536
0.4644
0.49536
0.47523
0.49071
0.50929
0.52941
0.49536
0.54025
0.56037
0.76625
0.98607
1.0062
0.71517
0.43498
0.36997
0.54025
0.58978
0.65015
0.67492
0.71053
0.67028
0.62074
0.54954
0.47988
0.41486
0.40402
0.38545
0.41486
0.32972
0.34985
0.36997
0.35449
0.33901
0.35449
0.31424
0.28019
0.23375
0.22446
0.27399
0.13467
0.10836
0.10372
0.11455
0.0387
0.034056
0.078947
0.13932
0.19505
0.17492
0.23375
0.29412
0.27399
0.33437
0.35913
0.39474
0.41486
0.39474
0.35449
0.35913
0.32972
0.32508
0.39009
0.42415
0.41486
0.39474
0.41486
0.45046
0.45511
0.4644
0.45046
0.41486
0.42415
0.45511
0.48452
0.45046
0.41022
0.43963
0.4644
0.47523
0.54025
0.50929
0.52477
0.48452
0.44427
0.35913
0.30495
0.3096
0.23375
0.21362
0.24923
0.21981
0.2291
0.1192
0.71053
1.096
1.1006
0.94582
0.87152
0.83127
0.75077
0.75542
0.67492
0.63467
0.56502
0.56037
0.59598
0.50929
0.5356
0.50929
0.5
0.48452
0.62539
0.83127
0.94582
0.71981
0.45975
0.32972
0.37926
0.45975
0.50464
0.60526
0.62074
0.5805
0.52012
0.48452
0.38545
0.36997
0.40402
0.34985
0.39474
0.42415
0.37926
0.34985
0.33901
0.38545
0.35449
0.33437
0.32508
0.31889
0.33437
0.29412
0.26471
0.24923
0.20898
0.14861
0.15944
0.16409
0.21981
0.24923
0.23375
0.29412
0.35913
0.43963
0.4644
0.43963
0.50464
0.54954
0.5805
0.61455
0.56966
0.5805
0.60062
0.61455
0.56502
0.56037
0.57585
0.59598
0.5805
0.60526
0.5805
0.56966
0.49536
0.52012
0.5356
0.52477
0.55573
0.5356
0.52941
0.56966
0.54489
0.5356
0.52941
0.56966
0.55573
0.6548
0.68111
0.61455
0.54954
0.5356
0.54954
0.55573
0.56502
0.54954
0.52012
0.5
0.47059
0.49071
0.47523
0.49071
0.47988
0.50464
0.51548
0.50464
0.54489
0.54025
0.52477
0.49071
0.48452
0.49071
0.52012
0.57585
0.55573
0.5356
0.54025
0.69969
0.92105
0.98142
0.75077
0.49536
0.37461
0.50464
0.58514
0.68111
0.69969
0.67028
0.71981
0.66563
0.54954
0.49071
0.5
0.40402
0.38545
0.42415
0.37926
0.39474
0.40402
0.31424
0.33901
0.3452
0.3452
0.33437
0.30495
0.28483
0.24458
0.24923
0.2291
0.18885
0.18885
0.19969
0.1548
0.21981
0.26471
0.20898
0.26471
0.3452
0.37461
0.39009
0.42415
0.49071
0.52012
0.58514
0.56966
0.60526
0.57585
0.56037
0.59598
0.60526
0.5805
0.54025
0.54954
0.54025
0.58978
0.5805
0.56037
0.5805
0.52477
0.50464
0.52477
0.55573
0.5356
0.55573
0.56037
0.56037
0.5805
0.52477
0.5805
0.60526
0.62074
0.64087
0.65015
0.55573
0.54489
0.57585
0.59598
0.48452
0.48452
0.5
0.54025
0.47059
0.4195
0.45046
0.49536
0.50464
0.48452
0.51548
0.47059
0.51548
0.5356
0.45046
0.47059
0.48452
0.49071
0.54025
0.56037
0.49071
0.51548
0.54954
0.70588
0.86533
0.94118
0.81579
0.52477
0.34985
0.32508
0.45046
0.57585
0.64551
0.66563
0.63003
0.69505
0.58514
0.51548
0.45975
0.43963
0.45975
0.3452
0.31424
0.37461
0.39938
0.33901
0.3452
0.31889
0.34985
0.30031
0.32508
0.28019
0.25387
0.27399
0.20433
0.21362
0.17957
0.099071
0.089783
0.14396
0.18421
0.23375
0.25387
0.30495
0.37926
0.43498
0.38545
0.43034
0.49536
0.49071
0.56502
0.58514
0.63003
0.60991
0.62539
0.55573
0.56502
0.59598
0.60526
0.56037
0.60991
0.57585
0.5805
0.59598
0.64551
0.50464
0.5
0.52477
0.55573
0.50929
0.54489
0.54025
0.54489
0.50929
0.59598
0.56037
0.64087
0.65015
0.55573
0.5356
0.55573
0.5356
0.55573
0.49536
0.50464
0.45511
0.43963
0.45511
0.43498
0.43963
0.47523
0.50929
0.56502
0.4644
0.41486
0.45511
0.5
0.47523
0.49071
0.47988
0.5
0.51548
0.5805
0.5
0.5
0.49071
0.69969
0.89628
0.95666
0.79102
0.58514
0.3452
0.33901
0.50929
0.59598
0.72601
0.74613
0.70588
0.60062
0.56502
0.47988
0.41486
0.33901
0.35913
0.38545
0.41022
0.4195
0.36997
0.34985
0.36533
0.33901
0.3452
0.30031
0.28947
0.27399
0.24923
0.21981
0.21362
0.17492
0.15944
0.18421
0.18421
0.14861
0.16873
0.23994
0.20433
0.26935
0.35913
0.43963
0.48452
0.51548
0.51548
0.52477
0.54954
0.5356
0.5805
0.55573
0.62074
0.62074
0.60991
0.5805
0.58978
0.58514
0.55573
0.5356
0.54025
0.54025
0.56502
0.56966
0.58514
0.54489
0.50929
0.47988
0.47523
0.5356
0.52477
0.52012
0.55573
0.54025
0.65015
0.60062
0.60526
0.57585
0.56502
0.54954
0.5805
0.49071
0.50464
0.51548
0.52941
0.45511
0.48452
0.43034
0.45975
0.51548
0.4644
0.43034
0.47059
0.49071
0.51548
0.49536
0.45046
0.49536
0.47988
0.52941
0.5356
0.52012
0.48452
0.47059
0.54954
0.61455
0.80031
0.99536
1.0108
0.60991
0.39474
0.37461
0.50929
0.59598
0.64551
0.68111
0.71981
0.62539
0.54489
0.54954
0.42415
0.38545
0.35449
0.39474
0.41022
0.41486
0.3452
0.31424
0.33901
0.36533
0.31889
0.28947
0.33901
0.3452
0.25387
0.20898
0.13932
0.1548
0.13467
0.14861
0.20433
0.19969
0.16409
0.18885
0.23994
0.28947
0.33437
0.39009
0.37926
0.47523
0.54489
0.6548
0.52941
0.51548
0.54025
0.60991
0.56966
0.56037
0.55573
0.56966
0.54489
0.5805
0.61455
0.52477
0.52941
0.52012
0.56037
0.50929
0.47059
0.51548
0.49071
0.47059
0.4644
0.45975
0.50464
0.56966
0.60526
0.50929
0.54025
0.63003
0.65015
0.57585
0.5356
0.49536
0.49071
0.54025
0.52012
0.48452
0.47988
0.54489
0.45046
0.39938
0.39474
0.45975
0.47059
0.44427
0.45975
0.47059
0.44427
0.47523
0.52941
0.49536
0.45511
0.47059
0.45046
0.44427
0.55573
0.56966
0.48452
0.54489
0.77554
0.95666
1.0015
0.70588
0.41022
0.30495
0.45975
0.52941
0.62074
0.66099
0.67492
0.61455
0.55573
0.50929
0.5
0.50929
0.32508
0.34985
0.38545
0.32972
0.37461
0.33901
0.32508
0.31424
0.36997
0.35449
0.31424
0.21981
0.20433
0.24923
0.1548
0.17492
0.19505
0.15944
0.13467
0.21981
0.18885
0.16409
0.22446
0.27399
0.26471
0.35449
0.43498
0.45511
0.52012
0.54025
0.5356
0.64087
0.56502
0.50464
0.5
0.59598
0.61455
0.52941
0.54954
0.50464
0.47988
0.5356
0.58978
0.49536
0.48452
0.50929
0.5805
0.50929
0.4644
0.49071
0.48452
0.62074
0.51548
0.39938
0.44427
0.47523
0.52012
0.51548
0.62074
0.64087
0.64551
0.62539
0.66563
0.48452
0.4644
0.49071
0.45511
0.49536
0.4644
0.4195
0.45511
0.4644
0.47988
0.43034
0.44427
0.4644
0.44427
0.48452
0.4644
0.50464
0.50929
0.44427
0.45046
0.47523
0.50929
0.52012
0.45975
0.47988
0.58514
0.7709
0.90093
0.91641
0.66563
0.43034
0.31424
0.43498
0.52012
0.61455
0.66099
0.71981
0.65015
0.60526
0.56037
0.50929
0.47523
0.36997
0.30031
0.32508
0.34985
0.37461
0.38545
0.32972
0.33437
0.29412
0.31889
0.36997
0.24923
0.26006
0.16409
0.15944
0.20898
0.13932
0.12384
0.14396
0.18885
0.14396
0.18421
0.21981
0.19969
0.3096
0.33437
0.31889
0.4195
0.43034
0.47059
0.51548
0.58514
0.56502
0.56037
0.55573
0.60526
0.60526
0.56502
0.55573
0.56037
0.52941
0.55573
0.5356
0.54954
0.51548
0.5356
0.5356
0.54025
0.51548
0.54489
0.50929
0.52477
0.50464
0.47988
0.52012
0.54025
0.55573
0.52012
0.60526
0.64087
0.56966
0.49071
0.55573
0.50464
0.48452
0.45046
0.48452
0.5356
0.47523
0.36997
0.40402
0.47523
0.49536
0.39474
0.43034
0.43963
0.52012
0.4644
0.43034
0.50929
0.51548
0.4644
0.4644
0.45975
0.47523
0.49536
0.52941
0.57585
0.69969
0.91022
0.95666
0.71517
0.37461
0.28019
0.40402
0.50464
0.62539
0.60062
0.64551
0.64087
0.6548
0.56037
0.44427
0.39938
0.39474
0.4195
0.37461
0.33437
0.40402
0.31424
0.28947
0.3452
0.29412
0.32508
0.33901
0.24458
0.24923
0.26006
0.25387
0.26006
0.12384
0.1548
0.15944
0.11455
0.12848
0.16409
0.17492
0.18885
0.28483
0.3452
0.39009
0.43963
0.44427
0.49536
0.56502
0.61455
0.56037
0.52012
0.56037
0.5805
0.60062
0.64087
0.64551
0.54025
0.52012
0.62074
0.54954
0.52477
0.56037
0.56502
0.57585
0.52477
0.62074
0.63003
0.47059
0.54025
0.54489
0.47059
0.4644
0.51548
0.55573
0.62074
0.60991
0.63467
0.61455
0.63467
0.48452
0.47523
0.44427
0.45046
0.47988
0.50929
0.47059
0.45046
0.43963
0.4644
0.50929
0.45511
0.5
0.43498
0.41486
0.45975
0.49071
0.5
0.47988
0.49071
0.51548
0.50929
0.54954
0.47988
0.45511
0.50929
0.62074
0.77554
0.99536
0.89628
0.56037
0.36533
0.45975
0.56502
0.54025
0.64087
0.63003
0.69505
0.67028
0.54954
0.50464
0.45511
0.45975
0.41486
0.34985
0.31889
0.3452
0.36533
0.31424
0.35449
0.31424
0.32972
0.27399
0.31889
0.29412
0.31424
0.31889
0.19969
0.10836
0.099071
0.14396
0.089783
0.10836
0.1548
0.22446
0.27399
0.31889
0.29412
0.41486
0.42415
0.44427
0.47988
0.50929
0.5
0.55573
0.5805
0.55573
0.59598
0.65015
0.56966
0.5805
0.52012
0.56037
0.60526
0.4644
0.45975
0.50464
0.52012
0.5356
0.54954
0.50929
0.56502
0.5
0.5356
0.48452
0.47059
0.4644
0.52941
0.51548
0.54025
0.58514
0.64551
0.62074
0.58978
0.49536
0.48452
0.52012
0.50929
0.49071
0.5
0.49536
0.55573
0.43034
0.39009
0.41486
0.49536
0.45975
0.45046
0.4195
0.44427
0.47523
0.54025
0.54489
0.4644
0.43498
0.45511
0.48452
0.56037
0.49536
0.48452
0.50464
0.63003
0.87616
1.0155
0.79102
0.45975
0.31424
0.39938
0.50929
0.56037
0.60991
0.63467
0.65015
0.6548
0.5356
0.48452
0.51548
0.3452
0.3096
0.33901
0.36997
0.32508
0.35449
0.28947
0.26471
0.29412
0.3096
0.33437
0.3452
0.23994
0.20898
0.22446
0.24458
0.12848
0.13467
0.089783
0.074303
0.10372
0.1548
0.23994
0.26935
0.31424
0.30495
0.4195
0.45046
0.43498
0.50464
0.47988
0.54489
0.5805
0.54025
0.56037
0.60062
0.52941
0.52012
0.51548
0.58978
0.54025
0.5805
0.5356
0.52012
0.49071
0.50464
0.5
0.47523
0.49536
0.49071
0.50929
0.54025
0.47523
0.52012
0.54025
0.56502
0.49536
0.47988
0.56502
0.62074
0.59598
0.60062
0.51548
0.50929
0.49071
0.47059
0.4644
0.48452
0.45046
0.41022
0.37926
0.4195
0.34985
0.32972
0.34985
0.36997
0.40402
0.45975
0.49536
0.50929
0.52941
0.54025
0.49071
0.4195
0.39474
0.43498
0.43034
0.47988
0.45511
0.66563
0.86533
0.90557
0.68111
0.43034
0.30031
0.43963
0.54025
0.67028
0.62074
0.64551
0.64087
0.64551
0.52941
0.54489
0.43963
0.34985
0.37461
0.31424
0.31889
0.37461
0.34985
0.35913
0.37926
0.43034
0.28483
0.22446
0.18885
0.20433
0.22446
0.21362
0.22446
0.18421
0.17957
0.18885
0.1192
0.15944
0.14861
0.17957
0.26471
0.28947
0.28483
0.36997
0.42415
0.49536
0.5356
0.51548
0.49536
0.56966
0.57585
0.54025
0.56502
0.59598
0.64551
0.54954
0.51548
0.49536
0.58514
0.60062
0.5356
0.52477
0.51548
0.52941
0.5356
0.56966
0.63003
0.58514
0.50464
0.45046
0.43034
0.47988
0.52941
0.54954
0.59598
0.64551
0.67492
0.58514
0.50929
0.52012
0.51548
0.52012
0.45975
0.49071
0.43963
0.43963
0.44427
0.42415
0.48452
0.52012
0.54954
0.47988
0.40402
0.41486
0.44427
0.47523
0.4644
0.50929
0.48452
0.47523
0.55573
0.52477
0.48452
0.50464
0.58514
0.77554
0.90093
0.92105
0.58978
0.32972
0.30031
0.5
0.60062
0.54025
0.5356
0.63467
0.63003
0.61455
0.57585
0.52012
0.52477
0.35449
0.38545
0.35913
0.36997
0.32508
0.35449
0.36997
0.3452
0.37461
0.32972
0.40402
0.29412
0.26935
0.27399
0.17957
0.15944
0.13467
0.1548
0.18421
0.23375
0.23994
0.12848
0.16409
0.22446
0.3096
0.4195
0.43498
0.40402
0.49071
0.5356
0.59598
0.54489
0.49536
0.5356
0.60526
0.56966
0.59598
0.61455
0.58978
0.60062
0.56502
0.6904
0.71053
0.50929
0.54954
0.54489
0.54489
0.56037
0.58978
0.57585
0.58978
0.67028
0.5356
0.43034
0.47988
0.54954
0.58514
0.62539
0.65015
0.66563
0.54954
0.52012
0.54489
0.54954
0.50464
0.52941
0.41022
0.41022
0.43963
0.45046
0.48452
0.50929
0.50464
0.56502
0.42415
0.39474
0.45511
0.45046
0.45975
0.48452
0.51548
0.60526
0.60991
0.47059
0.50929
0.5
0.49071
0.72601
0.90093
0.96594
0.81115
0.56966
0.37926
0.47059
0.49536
0.56966
0.6548
0.71053
0.73529
0.75077
0.54025
0.49071
0.41022
0.47988
0.38545
0.30495
0.3452
0.35449
0.3452
0.47059
0.3452
0.27399
0.30495
0.28019
0.26471
0.25387
0.28019
0.22446
0.20898
0.21362
0.16873
0.24923
0.18885
0.11455
0.10836
0.21362
0.30031
0.36533
0.39474
0.38545
0.43963
0.47059
0.4644
0.54489
0.5805
0.54025
0.56037
0.5805
0.60991
0.68111
0.56966
0.47988
0.49536
0.52941
0.59598
0.54025
0.51548
0.50929
0.5356
0.56966
0.61455
0.48452
0.45511
0.4644
0.5
0.58978
0.52941
0.48452
0.52012
0.58978
0.64087
0.58978
0.57585
0.55573
0.54489
0.51548
0.58978
0.59598
0.47988
0.42415
0.44427
0.40402
0.39474
0.43034
0.51548
0.52477
0.47523
0.45975
0.47988
0.43963
0.47059
0.47988
0.5
0.52477
0.47523
0.45046
0.49071
0.50464
0.52477
0.58514
0.63003
0.86533
0.88545
0.89164
0.52477
0.33437
0.31889
0.4644
0.56502
0.67028
0.69505
0.68576
0.75077
0.60062
0.43498
0.39009
0.38545
0.37926
0.43034
0.37926
0.40402
0.30495
0.33437
0.3452
0.38545
0.32972
0.31424
0.28947
0.26006
0.2291
0.27399
0.20898
0.1548
0.16873
0.13467
0.14861
0.19969
0.20433
0.17492
0.24923
0.35913
0.37461
0.32508
0.41022
0.47059
0.54954
0.5805
0.52012
0.50464
0.56502
0.60062
0.55573
0.58514
0.65015
0.50464
0.4644
0.50929
0.52477
0.54954
0.60991
0.63467
0.5356
0.48452
0.47059
0.49071
0.52012
0.56502
0.48452
0.52477
0.54025
0.47059
0.4644
0.56037
0.58978
0.60526
0.58978
0.60526
0.58514
0.59598
0.57585
0.49536
0.50464
0.45046
0.41486
0.43498
0.42415
0.49071
0.47059
0.48452
0.45975
0.48452
0.52477
0.5356
0.41486
0.45511
0.44427
0.47988
0.52012
0.45975
0.43498
0.49071
0.52477
0.5
0.56966
0.66099
0.78638
0.92105
0.73065
0.48452
0.35913
0.41022
0.49536
0.63003
0.68111
0.69969
0.66563
0.62074
0.58514
0.47059
0.41022
0.39474
0.41486
0.36533
0.38545
0.35449
0.34985
0.37926
0.39009
0.31889
0.26935
0.25387
0.26935
0.26471
0.26935
0.21362
0.2291
0.18421
0.20433
0.13467
0.15944
0.18421
0.16409
0.18421
0.23994
0.28019
0.27399
0.33901
0.40402
0.44427
0.5
0.52941
0.57585
0.60062
0.52941
0.54025
0.57585
0.54025
0.56037
0.56966
0.59598
0.54954
0.5356
0.62074
0.52941
0.5
0.51548
0.52941
0.50464
0.5
0.52477
0.5805
0.49536
0.49071
0.52941
0.56037
0.56037
0.57585
0.60991
0.56502
0.58978
0.60526
0.52477
0.50464
0.50929
0.47059
0.45046
0.45975
0.47988
0.4644
0.45975
0.4644
0.47523
0.49536
0.52477
0.43963
0.45511
0.43963
0.47059
0.50929
0.5356
0.4195
0.41486
0.45975
0.47059
0.51548
0.50929
0.56037
0.52012
0.73529
0.93034
0.97059
0.60062
0.34985
0.30031
0.40402
0.49536
0.58978
0.63467
0.68111
0.66099
0.61455
0.48452
0.45046
0.43498
0.41022
0.35913
0.3452
0.34985
0.31424
0.33901
0.35913
0.33901
0.30495
0.30031
0.3096
0.31424
0.26935
0.22446
0.20433
0.16873
0.16873
0.12848
0.13467
0.16409
0.19969
0.18885
0.23375
0.25387
0.33901
0.35913
0.41022
0.39938
0.43963
0.5
0.5356
0.52941
0.56966
0.59598
0.58978
0.60526
0.57585
0.56966
0.64087
0.54489
0.56502
0.54025
0.56037
0.5356
0.52941
0.5356
0.54954
0.54489
0.5356
0.5356
0.56037
0.54954
0.54489
0.57585
0.54489
0.59598
0.62074
0.62539
0.58514
0.56502
0.56966
0.50464
0.49071
0.49536
0.49071
0.49536
0.49071
0.47059
0.4644
0.45046
0.44427
0.4644
0.48452
0.5
0.50929
0.47988
0.49071
0.50464
0.5
0.50464
0.47988
0.49071
0.5
0.52941
0.52941
0.51548
0.65015
0.85139
0.98142
0.81579
0.54025
0.36997
0.47523
0.54025
0.60526
0.67028
0.73065
0.67492
0.63467
0.52477
0.47988
0.43498
0.37461
0.35449
0.34985
0.34985
0.36997
0.34985
0.33901
0.3452
0.33437
0.30495
0.29412
0.27399
0.27399
0.24923
0.21362
0.18421
0.1548
0.12848
0.12848
0.13932
0.1548
0.17492
0.19505
0.21981
0.28019
0.39474
0.4195
0.43034
0.48452
0.5
0.52012
0.54954
0.56037
0.5805
0.57585
0.5805
0.56502
0.5805
0.56502
0.57585
0.54025
0.52941
0.52477
0.54489
0.5356
0.52477
0.5356
0.56966
0.5
0.47988
0.49071
0.48452
0.49536
0.51548
0.52012
0.52941
0.56037
0.60526
0.62074
0.60526
0.5805
0.54954
0.51548
0.50464
0.49536
0.49071
0.49071
0.50464
0.44427
0.43963
0.43963
0.44427
0.45511
0.4644
0.47059
0.4644
0.47059
0.4644
0.49071
0.48452
0.49071
0.49071
0.49071
0.5
0.52012
0.50929
0.5
0.55573
0.74613
0.93034
0.97678
0.64087
0.36997
0.33901
0.45511
0.52012
0.59598
0.64087
0.67492
0.64551
0.5805
0.49536
0.43034
0.39474
0.37461
0.36997
0.35449
0.34985
0.33437
0.36533
0.33901
0.31424
0.30031
0.28483
0.27399
0.26471
0.24923
0.22446
0.20433
0.16873
0.14396
0.12848
0.14861
0.15944
0.13467
0.16873
0.21362
0.24923
0.31424
0.35913
0.39938
0.44427
0.49071
0.50929
0.5356
0.5356
0.56037
0.56037
0.57585
0.56037
0.56502
0.5356
0.5356
0.5356
0.5356
0.52477
0.52941
0.54025
0.50929
0.50464
0.51548
0.49536
0.49071
0.5
0.50929
0.49071
0.49071
0.49536
0.50929
0.56037
0.59598
0.60991
0.60526
0.56502
0.51548
0.50929
0.51548
0.49536
0.48452
0.50464
0.44427
0.43498
0.42415
0.43963
0.45046
0.45511
0.4644
0.45975
0.4644
0.47523
0.49071
0.47988
0.50464
0.4644
0.44427
0.45511
0.48452
0.5
0.49536
0.47523
0.56037
0.7709
0.93653
0.94582
0.59598
0.35449
0.31424
0.5
0.54489
0.60991
0.66563
0.69969
0.65015
0.58514
0.50929
0.43034
0.38545
0.37461
0.36997
0.36533
0.36997
0.33437
0.32972
0.3096
0.30031
0.30495
0.30031
0.28019
0.25387
0.24923
0.21981
0.18885
0.17957
0.17492
0.13467
0.12384
0.11455
0.12848
0.16873
0.20433
0.25387
0.31424
0.36533
0.39009
0.42415
0.49071
0.52941
0.52477
0.52012
0.54025
0.5356
0.56502
0.5356
0.54025
0.55573
0.54489
0.56037
0.56037
0.52477
0.5
0.51548
0.50929
0.51548
0.52012
0.50929
0.51548
0.50929
0.50929
0.50929
0.52012
0.52477
0.50929
0.57585
0.5805
0.58978
0.58978
0.58514
0.54025
0.52941
0.50929
0.52012
0.48452
0.44427
0.4644
0.47988
0.43963
0.41486
0.43963
0.45975
0.43034
0.45046
0.47988
0.47523
0.4644
0.47988
0.49071
0.49071
0.47059
0.45046
0.48452
0.52012
0.48452
0.5
0.56966
0.74613
0.92105
0.94582
0.58978
0.32508
0.27399
0.40402
0.50929
0.5805
0.5805
0.64551
0.63467
0.6548
0.54954
0.45975
0.39938
0.36997
0.36533
0.35449
0.37461
0.3452
0.32508
0.31889
0.3096
0.32508
0.28019
0.28019
0.27399
0.23994
0.22446
0.20433
0.18421
0.15944
0.14861
0.13467
0.16409
0.17957
0.16873
0.16409
0.24458
0.28483
0.33437
0.37926
0.42415
0.49071
0.54025
0.54954
0.51548
0.54489
0.5805
0.56037
0.55573
0.56966
0.56037
0.56037
0.5805
0.56037
0.56502
0.5805
0.52941
0.5356
0.52477
0.52941
0.54954
0.50929
0.50929
0.52941
0.5356
0.54489
0.57585
0.52477
0.55573
0.58514
0.58978
0.56502
0.52941
0.51548
0.52012
0.49536
0.48452
0.45046
0.45975
0.4644
0.41486
0.4195
0.44427
0.44427
0.4644
0.44427
0.4644
0.4644
0.47059
0.47523
0.47059
0.49071
0.47523
0.45975
0.47988
0.52012
0.52477
0.49536
0.52012
0.70588
0.89164
0.9613
0.71517
0.45511
0.38545
0.48452
0.52941
0.5805
0.60062
0.64087
0.63003
0.63467
0.54025
0.47059
0.4195
0.38545
0.40402
0.36533
0.36997
0.34985
0.33437
0.32508
0.31424
0.31889
0.3096
0.30031
0.31424
0.26471
0.2291
0.21362
0.22446
0.14861
0.1192
0.11455
0.10836
0.13467
0.15944
0.19969
0.25387
0.30495
0.38545
0.41022
0.39938
0.47523
0.49536
0.54489
0.56502
0.58514
0.56502
0.56037
0.56966
0.56502
0.58978
0.60526
0.55573
0.54489
0.56037
0.54489
0.52941
0.5356
0.54489
0.5356
0.50929
0.5356
0.51548
0.50929
0.52941
0.50464
0.49071
0.52941
0.56037
0.56966
0.60062
0.58514
0.54954
0.51548
0.54954
0.50464
0.47988
0.5
0.47059
0.4644
0.44427
0.43034
0.45046
0.44427
0.45975
0.47059
0.48452
0.5
0.47988
0.45511
0.4644
0.47988
0.50929
0.47988
0.47059
0.5
0.50464
0.50929
0.52012
0.50929
0.75077
0.95046
1.0062
0.6548
0.4195
0.37926
0.4644
0.52941
0.61455
0.67028
0.69505
0.66563
0.58978
0.5
0.44427
0.39938
0.39474
0.39474
0.40402
0.36533
0.36997
0.3452
0.33901
0.31424
0.31889
0.32972
0.30495
0.27399
0.24923
0.2291
0.22446
0.20433
0.16409
0.18421
0.13932
0.13467
0.1548
0.18885
0.23375
0.3096
0.33901
0.38545
0.4195
0.47523
0.51548
0.5356
0.56037
0.54489
0.56037
0.55573
0.5805
0.56502
0.54954
0.56037
0.55573
0.54954
0.56037
0.56037
0.54954
0.54489
0.52012
0.52477
0.50929
0.5356
0.51548
0.5
0.51548
0.50929
0.50464
0.52012
0.5356
0.52941
0.55573
0.61455
0.63003
0.62539
0.63003
0.5356
0.52477
0.50929
0.51548
0.52012
0.52477
0.48452
0.47988
0.49071
0.45975
0.4644
0.52012
0.48452
0.49071
0.49071
0.5
0.50929
0.52477
0.50464
0.49536
0.5
0.50464
0.54954
0.5356
0.52012
0.50929
0.56966
0.78638
0.97678
0.99071
0.65015
0.37461
0.33437
0.49536
0.54954
0.64087
0.65015
0.67492
0.64551
0.58514
0.50929
0.43034
0.39474
0.41022
0.37926
0.36533
0.35449
0.36533
0.33901
0.32972
0.31889
0.32972
0.30031
0.28019
0.26935
0.26471
0.2291
0.20433
0.18421
0.1548
0.13467
0.13467
0.14396
0.16873
0.20898
0.24923
0.28483
0.33901
0.37461
0.43498
0.4644
0.49536
0.52477
0.52012
0.54489
0.56037
0.56037
0.56502
0.56037
0.56037
0.5805
0.58514
0.52941
0.50929
0.52012
0.54954
0.51548
0.50464
0.50929
0.50464
0.51548
0.50929
0.5356
0.4644
0.45975
0.49071
0.50929
0.51548
0.52477
0.56502
0.60991
0.60526
0.60991
0.60062
0.56966
0.52012
0.49536
0.47523
0.47988
0.4644
0.48452
0.44427
0.43034
0.44427
0.4644
0.4644
0.45511
0.4644
0.45511
0.4644
0.48452
0.47523
0.4644
0.48452
0.49536
0.51548
0.49536
0.5
0.50929
0.5
0.56502
0.81115
0.93653
0.84056
0.57585
0.34985
0.33437
0.48452
0.52477
0.59598
0.63467
0.69969
0.65015
0.59598
0.54489
0.47523
0.42415
0.37461
0.36533
0.33437
0.32972
0.35913
0.33901
0.31424
0.32508
0.30495
0.30495
0.30031
0.29412
0.24458
0.21362
0.21981
0.20433
0.16873
0.13467
0.12848
0.14396
0.15944
0.18421
0.24458
0.23994
0.29412
0.35449
0.39009
0.45046
0.50464
0.51548
0.54954
0.5805
0.56037
0.58514
0.59598
0.57585
0.56037
0.59598
0.56502
0.54489
0.56037
0.56966
0.54489
0.56966
0.54489
0.5356
0.52941
0.55573
0.54954
0.50464
0.5
0.52941
0.5356
0.50929
0.50929
0.52477
0.60062
0.60526
0.59598
0.60062
0.54025
0.50929
0.50464
0.49071
0.47059
0.44427
0.45046
0.42415
0.43034
0.38545
0.41486
0.43034
0.43498
0.43963
0.49071
0.50464
0.47059
0.45046
0.45975
0.50464
0.47059
0.4644
0.5
0.52477
0.50464
0.50464
0.54954
0.60991
0.79567
0.96594
0.99536
0.55573
0.32508
0.30031
0.45046
0.5356
0.60062
0.59598
0.66099
0.64551
0.61455
0.54025
0.49536
0.44427
0.38545
0.35449
0.35913
0.36533
0.35449
0.33901
0.35449
0.36533
0.32972
0.38545
0.28483
0.23375
0.24458
0.21362
0.20433
0.19969
0.17957
0.1548
0.12848
0.10836
0.14396
0.21981
0.24458
0.23994
0.29412
0.35913
0.4195
0.49071
0.52477
0.55573
0.54489
0.5805
0.56502
0.58978
0.56966
0.56502
0.57585
0.56502
0.58514
0.60526
0.58978
0.59598
0.60991
0.55573
0.54025
0.57585
0.54954
0.54025
0.54489
0.54954
0.54025
0.52941
0.56037
0.55573
0.55573
0.62074
0.60526
0.62539
0.60526
0.57585
0.54025
0.54489
0.5356
0.52477
0.49071
0.5
0.48452
0.47523
0.50464
0.4644
0.45046
0.43963
0.4644
0.47523
0.49071
0.49536
0.5
0.5
0.50929
0.55573
0.50464
0.48452
0.49536
0.52941
0.54489
0.52941
0.55573
0.73065
0.94118
1.0356
0.83127
0.61455
0.45975
0.56037
0.60526
0.6548
0.71053
0.73994
0.67492
0.63467
0.56966
0.47523
0.4195
0.45511
0.36997
0.35449
0.36997
0.37926
0.38545
0.34985
0.35449
0.31889
0.32508
0.3096
0.30031
0.31424
0.2291
0.19505
0.18421
0.19969
0.15944
0.16409
0.12384
0.13932
0.16409
0.21981
0.26935
0.31889
0.39009
0.43498
0.41022
0.45511
0.47988
0.49071
0.49536
0.50929
0.54025
0.56037
0.56037
0.58514
0.56037
0.5805
0.5356
0.56037
0.54489
0.57585
0.52477
0.52012
0.54489
0.54954
0.5356
0.51548
0.54025
0.49071
0.50464
0.52012
0.52012
0.54489
0.55573
0.56966
0.58978
0.62074
0.60991
0.60526
0.60991
0.52477
0.52477
0.50929
0.50929
0.51548
0.55573
0.43963
0.41022
0.45046
0.4644
0.45511
0.45975
0.43498
0.43963
0.47059
0.47523
0.50929
0.51548
0.47059
0.51548
0.48452
0.4644
0.51548
0.52477
0.47988
0.52477
0.71053
0.93034
1.0108
0.71053
0.4195
0.35449
0.49536
0.54489
0.60062
0.64087
0.69505
0.70588
0.60062
0.52941
0.4644
0.42415
0.39938
0.41022
0.38545
0.41486
0.3452
0.35449
0.3452
0.32508
0.32972
0.32972
0.33437
0.32508
0.32972
0.30031
0.26471
0.18885
0.18421
0.19969
0.15944
0.16409
0.15944
0.19969
0.24458
0.28483
0.32972
0.42415
0.43963
0.4195
0.48452
0.50464
0.52941
0.5356
0.5356
0.54489
0.56966
0.54954
0.54489
0.54489
0.58514
0.60526
0.51548
0.52941
0.52941
0.5356
0.52941
0.52477
0.51548
0.50464
0.54489
0.52941
0.49071
0.48452
0.51548
0.49071
0.50464
0.49071
0.51548
0.5356
0.56966
0.66563
0.62074
0.60526
0.5356
0.52477
0.54025
0.52477
0.52941
0.49071
0.48452
0.5
0.4644
0.45975
0.47523
0.47988
0.50929
0.47059
0.49071
0.49071
0.49071
0.50929
0.49071
0.50929
0.48452
0.47059
0.48452
0.5
0.52012
0.49536
0.47059
0.61455
0.8452
0.97059
0.80031
0.5
0.33901
0.42415
0.5356
0.62539
0.67492
0.66563
0.6904
0.64087
0.56966
0.51548
0.41486
0.36997
0.37461
0.36997
0.37926
0.36997
0.36533
0.35449
0.36533
0.32972
0.31424
0.32508
0.28947
0.26935
0.2291
0.20433
0.20898
0.17492
0.14396
0.13932
0.18885
0.20433
0.1548
0.2291
0.27399
0.3096
0.33437
0.39009
0.45975
0.5
0.52941
0.54025
0.58978
0.55573
0.54489
0.54025
0.5805
0.54489
0.5356
0.55573
0.56966
0.5805
0.54954
0.54025
0.51548
0.54954
0.54025
0.52012
0.50929
0.50464
0.52012
0.52477
0.4644
0.52477
0.56037
0.47523
0.45975
0.52477
0.5
0.5356
0.56966
0.64087
0.61455
0.58978
0.52477
0.50464
0.50929
0.49071
0.50929
0.4644
0.42415
0.43498
0.41486
0.44427
0.49071
0.4644
0.47523
0.43963
0.4644
0.47523
0.48452
0.4644
0.45975
0.45511
0.45511
0.50929
0.51548
0.49071
0.47059
0.49071
0.47988
0.74613
0.92105
0.93653
0.62074
0.40402
0.33901
0.47059
0.54025
0.60526
0.62539
0.73065
0.6548
0.60526
0.55573
0.45975
0.39009
0.37926
0.39009
0.31889
0.35913
0.32508
0.30031
0.29412
0.32972
0.33437
0.30495
0.28019
0.24458
0.22446
0.2291
0.18421
0.18421
0.1548
0.14861
0.21362
0.10836
0.10372
0.12848
0.19969
0.2291
0.26006
0.32972
0.38545
0.43498
0.51548
0.54489
0.50929
0.52012
0.5
0.52477
0.56502
0.58978
0.55573
0.52941
0.5356
0.56966
0.59598
0.50929
0.50464
0.51548
0.5356
0.54489
0.52012
0.52941
0.54025
0.49071
0.5
0.57585
0.54489
0.52477
0.49071
0.50929
0.52012
0.54489
0.56502
0.63467
0.60526
0.63003
0.65015
0.49071
0.49536
0.45046
0.47059
0.45511
0.43963
0.4195
0.45046
0.4195
0.4644
0.43963
0.43963
0.42415
0.39009
0.4195
0.4644
0.45975
0.47523
0.4644
0.50464
0.44427
0.45975
0.50929
0.49536
0.47988
0.49536
0.62539
0.82043
0.93034
0.80031
0.52477
0.28019
0.26006
0.4644
0.56037
0.60062
0.58514
0.66099
0.67028
0.63467
0.54489
0.47059
0.44427
0.37461
0.33901
0.37461
0.32508
0.31889
0.32972
0.31889
0.34985
0.3096
0.29412
0.26935
0.26006
0.23375
0.21981
0.15944
0.1548
0.12848
0.12384
0.11455
0.15944
0.13932
0.18885
0.16409
0.23994
0.32972
0.3452
0.38545
0.43963
0.48452
0.50929
0.5356
0.57585
0.5805
0.56037
0.57585
0.58978
0.55573
0.56037
0.58514
0.54489
0.54954
0.54025
0.52012
0.54954
0.56037
0.52477
0.5356
0.5356
0.54025
0.51548
0.52477
0.49536
0.49071
0.5356
0.52012
0.48452
0.52012
0.5805
0.58978
0.60991
0.62539
0.52477
0.5356
0.48452
0.47059
0.49071
0.4644
0.45975
0.4644
0.43963
0.45046
0.4644
0.45511
0.47988
0.44427
0.4644
0.44427
0.45975
0.47988
0.49071
0.45511
0.50464
0.47988
0.50464
0.56502
0.48452
0.4644
0.52012
0.74613
0.95666
0.99536
0.64551
0.38545
0.35913
0.50464
0.58514
0.60062
0.57585
0.63003
0.63467
0.58978
0.50929
0.4195
0.39009
0.38545
0.40402
0.38545
0.33901
0.3452
0.31889
0.36997
0.31889
0.30495
0.30031
0.28483
0.27399
0.33901
0.17957
0.16873
0.17957
0.12384
0.13467
0.10836
0.13467
0.1548
0.19505
0.24923
0.23994
0.28483
0.32508
0.38545
0.43498
0.48452
0.54489
0.54025
0.56966
0.56037
0.56502
0.55573
0.6548
0.5356
0.50464
0.55573
0.54489
0.52941
0.52477
0.56966
0.55573
0.54489
0.57585
0.50929
0.50464
0.49536
0.49071
0.52477
0.54954
0.52012
0.50929
0.49536
0.55573
0.57585
0.4644
0.54025
0.56502
0.59598
0.66099
0.68111
0.52941
0.52477
0.51548
0.5356
0.54954
0.43963
0.42415
0.44427
0.45511
0.43034
0.41486
0.45975
0.47988
0.45975
0.5356
0.43034
0.41022
0.45975
0.50464
0.45046
0.42415
0.43963
0.48452
0.50929
0.49536
0.54489
0.50929
0.68576
0.8808
0.92105
0.68111
0.43498
0.27399
0.36533
0.49071
0.60991
0.56037
0.59598
0.61455
0.58978
0.5356
0.49536
0.45511
0.41022
0.36997
0.37461
0.36997
0.4644
0.31424
0.25387
0.26935
0.28019
0.30031
0.31424
0.26006
0.25387
0.28947
0.23994
0.17492
0.1192
0.13932
0.10836
0.10372
0.14861
0.16873
0.24923
0.24923
0.29412
0.35913
0.35449
0.43963
0.47523
0.45511
0.52941
0.59598
0.51548
0.56037
0.56502
0.52012
0.55573
0.5805
0.58978
0.54025
0.56037
0.56966
0.52941
0.52477
0.57585
0.56037
0.5356
0.54489
0.56966
0.5
0.52477
0.48452
0.49071
0.52012
0.54025
0.54489
0.5356
0.56502
0.60526
0.60526
0.58514
0.52941
0.47059
0.4644
0.49536
0.52012
0.45975
0.48452
0.45511
0.43498
0.45975
0.47988
0.48452
0.43963
0.48452
0.43034
0.47988
0.49071
0.43963
0.44427
0.4644
0.47988
0.54489
0.54954
0.49071
0.48452
0.49536
0.54954
0.55573
0.75542
0.92105
0.93653
0.63003
0.42415
0.36997
0.52012
0.58978
0.5805
0.63467
0.68576
0.69505
0.57585
0.55573
0.43034
0.39009
0.37926
0.37461
0.40402
0.4195
0.36533
0.29412
0.30495
0.32972
0.34985
0.28483
0.28947
0.25387
0.26471
0.24923
0.26006
0.21362
0.1192
0.10836
0.12848
0.16409
0.14396
0.17957
0.16873
0.24458
0.30495
0.37926
0.44427
0.47988
0.52012
0.55573
0.58514
0.5805
0.55573
0.54489
0.58978
0.61455
0.56037
0.54489
0.60526
0.56966
0.52012
0.5
0.52941
0.50464
0.52941
0.51548
0.5356
0.52477
0.5356
0.52941
0.5
0.52012
0.5356
0.49071
0.52941
0.54025
0.50929
0.54954
0.60991
0.65015
0.6548
0.54954
0.5
0.49536
0.52477
0.5
0.47523
0.52012
0.45046
0.43034
0.43963
0.45975
0.45046
0.44427
0.43963
0.47059
0.49071
0.45975
0.54489
0.56966
0.44427
0.4644
0.47988
0.51548
0.57585
0.52941
0.49536
0.47988
0.54954
0.76006
0.94582
0.99536
0.67028
0.39938
0.30031
0.43498
0.50929
0.58978
0.65015
0.71053
0.69505
0.61455
0.52012
0.47059
0.4195
0.43498
0.37461
0.32508
0.35449
0.3452
0.34985
0.35449
0.31889
0.34985
0.31889
0.32972
0.23994
0.24923
0.17957
0.17492
0.16873
0.17492
0.16409
0.17492
0.13932
0.16409
0.19505
0.26006
0.30031
0.35913
0.52941
0.39009
0.33901
0.42415
0.47988
0.51548
0.55573
0.55573
0.56966
0.5805
0.56966
0.5805
0.54489
0.5356
0.5805
0.56037
0.55573
0.52941
0.52941
0.56966
0.5
0.50929
0.50464
0.52941
0.55573
0.50929
0.5
0.54025
0.56502
0.5805
0.43963
0.47988
0.51548
0.57585
0.62539
0.61455
0.63003
0.56037
0.56037
0.54954
0.5356
0.49536
0.45975
0.4644
0.43963
0.4644
0.43034
0.41486
0.47059
0.49536
0.45511
0.44427
0.49536
0.4644
0.47059
0.52012
0.52477
0.47523
0.45511
0.47523
0.50464
0.55573
0.51548
0.50464
0.6904
0.8808
0.92105
0.68111
0.41486
0.35913
0.36997
0.45046
0.56502
0.64551
0.67028
0.60526
0.60991
0.54954
0.5
0.45511
0.4644
0.35913
0.37926
0.35449
0.32972
0.31889
0.37461
0.31889
0.32508
0.3096
0.32508
0.27399
0.28019
0.28483
0.20898
0.17957
0.19969
0.20433
0.17492
0.12384
0.11455
0.16873
0.19505
0.2291
0.30495
0.32972
0.36997
0.4195
0.45511
0.50929
0.56037
0.52941
0.56037
0.57585
0.58978
0.60526
0.55573
0.58514
0.56037
0.55573
0.60062
0.55573
0.55573
0.5805
0.50929
0.50929
0.5
0.5356
0.50929
0.5
0.50929
0.49536
0.52941
0.5805
0.56037
0.52477
0.50929
0.54025
0.56966
0.58514
0.57585
0.52941
0.51548
0.54025
0.49536
0.48452
0.50464
0.50929
0.43963
0.45046
0.39474
0.41486
0.44427
0.45975
0.45975
0.45511
0.49071
0.48452
0.54025
0.43498
0.4195
0.45975
0.4644
0.45975
0.5356
0.50464
0.50929
0.52477
0.6904
0.94118
0.98607
0.71053
0.45046
0.30031
0.41486
0.52477
0.58978
0.62074
0.6548
0.67492
0.60062
0.54025
0.51548
0.42415
0.37461
0.34985
0.39009
0.39474
0.35913
0.33901
0.32972
0.32972
0.34985
0.33901
0.32972
0.29412
0.26935
0.28483
0.19969
0.17957
0.16873
0.17492
0.13467
0.15944
0.13467
0.16873
0.21981
0.26471
0.33437
0.32508
0.36997
0.44427
0.47988
0.47523
0.5356
0.54489
0.56966
0.58978
0.63467
0.64551
0.56037
0.54489
0.56966
0.60526
0.54489
0.54025
0.5805
0.55573
0.56966
0.56502
0.54954
0.56037
0.51548
0.52941
0.54025
0.49071
0.50464
0.56966
0.49071
0.47523
0.50464
0.56037
0.61455
0.60062
0.60991
0.54489
0.50929
0.56037
0.51548
0.49536
0.49071
0.50464
0.51548
0.47059
0.44427
0.45511
0.49071
0.47059
0.42415
0.43963
0.43498
0.47059
0.5
0.45975
0.49536
0.49071
0.4644
0.49536
0.45511
0.48452
0.47059
0.5
0.50929
0.67492
0.88545
0.96594
0.73994
0.48452
0.39474
0.45511
0.54025
0.60062
0.63003
0.68576
0.6904
0.61455
0.51548
0.43963
0.4644
0.37926
0.36533
0.39009
0.36533
0.3452
0.39474
0.34985
0.31424
0.32508
0.33901
0.30031
0.3096
0.28483
0.27399
0.23375
0.19969
0.16873
0.15944
0.16409
0.15944
0.17957
0.14396
0.21981
0.30031
0.31889
0.31424
0.41486
0.44427
0.49536
0.55573
0.5805
0.59598
0.54954
0.56502
0.58514
0.60526
0.5356
0.54954
0.54489
0.5805
0.61455
0.56037
0.50929
0.54025
0.56966
0.5356
0.51548
0.51548
0.5356
0.55573
0.50464
0.54954
0.5
0.51548
0.47523
0.52477
0.51548
0.59598
0.54954
0.57585
0.6548
0.66563
0.63467
0.54025
0.54489
0.48452
0.49071
0.47523
0.49071
0.47988
0.48452
0.44427
0.52012
0.41022
0.43963
0.42415
0.4644
0.4644
0.49071
0.50929
0.47523
0.49071
0.45511
0.51548
0.52477
0.44427
0.49536
0.47523
0.48452
0.4644
0.66099
0.89628
0.98142
0.79567
0.44427
0.25387
0.32972
0.43034
0.52477
0.62074
0.63003
0.62074
0.63003
0.56966
0.50929
0.4644
0.37926
0.39938
0.33901
0.34985
0.3452
0.39009
0.41022
0.3452
0.36997
0.30495
0.32508
0.28483
0.27399
0.23994
0.25387
0.19505
0.18421
0.20898
0.21362
0.12384
0.16409
0.18421
0.21981
0.20898
0.26006
0.35449
0.37461
0.39474
0.44427
0.50464
0.54025
0.56502
0.57585
0.52012
0.56502
0.59598
0.55573
0.54489
0.54025
0.56502
0.58514
0.58978
0.5356
0.5356
0.55573
0.57585
0.58978
0.54954
0.52012
0.52477
0.50929
0.54025
0.50929
0.52941
0.47988
0.54025
0.56502
0.61455
0.63467
0.61455
0.54025
0.51548
0.52941
0.55573
0.5
0.43498
0.4195
0.43498
0.43034
0.4644
0.45975
0.5
0.47988
0.41486
0.45511
0.4644
0.43498
0.49071
0.45975
0.43963
0.47523
0.49536
0.4644
0.49536
0.58514
0.5
0.43963
0.50464
0.71517
0.9257
0.95046
0.66099
0.35449
0.29412
0.47988
0.5805
0.63003
0.5356
0.62539
0.58978
0.57585
0.5
0.45046
0.41486
0.41022
0.42415
0.35913
0.40402
0.36533
0.30031
0.3096
0.3452
0.34985
0.30031
0.34985
0.27399
0.25387
0.2291
0.23994
0.17492
0.14861
0.1548
0.12384
0.10836
0.1548
0.21362
0.19969
0.23375
0.28947
0.39009
0.40402
0.4644
0.47988
0.52941
0.52941
0.54025
0.56502
0.60526
0.62539
0.54025
0.54954
0.56037
0.59598
0.64087
0.5356
0.54954
0.5356
0.56037
0.5805
0.61455
0.54489
0.50929
0.52477
0.50464
0.52941
0.56502
0.49536
0.49071
0.51548
0.5356
0.56502
0.60526
0.56966
0.5805
0.5805
0.58514
0.56037
0.51548
0.5
0.52012
0.5356
0.49071
0.50464
0.43034
0.41486
0.42415
0.4644
0.51548
0.47523
0.45975
0.45511
0.47988
0.54025
0.5805
0.45046
0.45046
0.44427
0.47059
0.49071
0.52012
0.5356
0.54489
0.56037
0.70588
0.93034
0.99071
0.73065
0.50929
0.32508
0.43034
0.52012
0.58978
0.6548
0.6904
0.67028
0.67492
0.5356
0.45975
0.41486
0.39474
0.41022
0.36997
0.33437
0.32508
0.35449
0.32972
0.34985
0.31889
0.28019
0.30495
0.27399
0.28019
0.25387
0.2291
0.19969
0.16409
0.16873
0.12848
0.10836
0.12848
0.18421
0.26471
0.26471
0.25387
0.32508
0.38545
0.45975
0.49071
0.50464
0.5356
0.55573
0.5356
0.54954
0.58514
0.59598
0.56502
0.5356
0.56037
0.54954
0.60062
0.5356
0.51548
0.5356
0.52012
0.50929
0.54025
0.55573
0.50464
0.5
0.49071
0.49071
0.5
0.50929
0.49536
0.51548
0.50929
0.55573
0.60526
0.59598
0.60526
0.5805
0.57585
0.59598
0.52012
0.47988
0.4644
0.45511
0.45511
0.45975
0.43963
0.42415
0.45975
0.49071
0.44427
0.43498
0.45046
0.44427
0.48452
0.49071
0.47059
0.48452
0.4644
0.4644
0.48452
0.52941
0.5356
0.49071
0.52941
0.59598
0.78638
0.94582
0.80495
0.52477
0.31889
0.37461
0.47523
0.56966
0.63003
0.66099
0.6904
0.66563
0.61455
0.52941
0.45511
0.39009
0.38545
0.36533
0.36997
0.35449
0.35449
0.32508
0.32972
0.31889
0.3452
0.31889
0.33437
0.31424
0.24458
0.20433
0.19969
0.2291
0.13467
0.13467
0.14396
0.13932
0.1548
0.20433
0.22446
0.27399
0.32508
0.37461
0.40402
0.45046
0.47059
0.5356
0.5805
0.52941
0.5356
0.54489
0.54954
0.55573
0.5805
0.56037
0.56966
0.56502
0.58514
0.54025
0.5356
0.56037
0.54489
0.52941
0.54025
0.54489
0.56037
0.5356
0.54489
0.49071
0.50929
0.52012
0.51548
0.5356
0.56037
0.58978
0.62074
0.60526
0.54954
0.51548
0.49071
0.47988
0.49071
0.4644
0.48452
0.49071
0.43034
0.43498
0.43963
0.45975
0.47523
0.45975
0.47059
0.5
0.45975
0.45511
0.48452
0.4644
0.48452
0.49071
0.47523
0.50929
0.52012
0.50929
0.52941
0.64551
0.85604
0.97678
0.79567
0.5
0.29412
0.32972
0.44427
0.52941
0.58978
0.62074
0.66099
0.63003
0.58514
0.54489
0.4644
0.43034
0.39474
0.35449
0.34985
0.34985
0.36533
0.34985
0.32508
0.33901
0.31889
0.3096
0.30031
0.30495
0.24923
0.23375
0.21362
0.19505
0.19969
0.14396
0.13467
0.1548
0.17492
0.1548
0.20433
0.26935
0.32972
0.41022
0.4195
0.45046
0.49071
0.54025
0.54954
0.56966
0.58978
0.60526
0.5805
0.5805
0.57585
0.58514
0.60062
0.5805
0.60062
0.56037
0.5805
0.54025
0.5356
0.54489
0.54954
0.54025
0.5356
0.52941
0.51548
0.52941
0.5356
0.5356
0.52941
0.55573
0.58514
0.5805
0.60526
0.58514
0.54025
0.50929
0.49536
0.5
0.49536
0.49536
0.48452
0.47059
0.4644
0.4644
0.45511
0.45511
0.4644
0.49071
0.4644
0.47523
0.4644
0.47523
0.47523
0.49071
0.50464
0.5
0.50929
0.49071
0.50464
0.5
0.50464
0.56037
0.76625
0.9613
1.0062
0.65015
0.39474
0.34985
0.52012
0.58514
0.63003
0.66563
0.69505
0.6548
0.58978
0.50929
0.45046
0.40402
0.38545
0.37461
0.39009
0.37926
0.3452
0.34985
0.32508
0.32508
0.32508
0.32972
0.29412
0.27399
0.26006
0.24923
0.21362
0.18885
0.18421
0.1548
0.14861
0.15944
0.17492
0.20898
0.27399
0.30495
0.32972
0.37926
0.42415
0.45975
0.49536
0.54025
0.55573
0.54489
0.56037
0.56037
0.55573
0.56502
0.56966
0.56502
0.56037
0.56037
0.56037
0.54954
0.54025
0.5356
0.54489
0.52941
0.52477
0.52477
0.50929
0.50929
0.50464
0.52477
0.50929
0.49071
0.51548
0.52941
0.52477
0.56502
0.60991
0.63467
0.62074
0.58514
0.54489
0.5356
0.51548
0.5
0.51548
0.49536
0.47523
0.4644
0.44427
0.4644
0.49071
0.45511
0.44427
0.4644
0.45975
0.47059
0.47988
0.48452
0.47988
0.49071
0.49536
0.5
0.49536
0.50929
0.50464
0.49536
0.54954
0.74613
0.95666
0.98607
0.64087
0.37926
0.32972
0.48452
0.55573
0.62074
0.6548
0.6904
0.65015
0.58978
0.51548
0.44427
0.41022
0.38545
0.37926
0.35913
0.35913
0.35449
0.34985
0.33901
0.33901
0.32972
0.30031
0.29412
0.28947
0.25387
0.23994
0.22446
0.20433
0.15944
0.14861
0.14396
0.1548
0.16873
0.18885
0.22446
0.26935
0.31889
0.36997
0.41486
0.45975
0.49071
0.51548
0.5356
0.54954
0.56037
0.56966
0.56502
0.56037
0.55573
0.54954
0.55573
0.54954
0.5356
0.52941
0.52477
0.52941
0.52941
0.50929
0.50929
0.52477
0.52941
0.50929
0.5
0.49536
0.50464
0.49071
0.5
0.52012
0.52477
0.5356
0.56966
0.62074
0.63003
0.60991
0.57585
0.55573
0.52477
0.50464
0.5
0.49071
0.47988
0.45975
0.45511
0.44427
0.44427
0.45511
0.45975
0.47523
0.47059
0.47523
0.49071
0.47988
0.49071
0.47523
0.48452
0.47988
0.50929
0.50929
0.50464
0.5
0.5
0.63003
0.82508
0.93653
0.78638
0.50929
0.32972
0.4195
0.52012
0.58978
0.6548
0.6904
0.71053
0.66099
0.56966
0.50929
0.43034
0.40402
0.38545
0.36997
0.36997
0.3452
0.32972
0.33437
0.32972
0.33901
0.30031
0.30495
0.28947
0.27399
0.25387
0.23375
0.19969
0.17957
0.17957
0.15944
0.13932
0.1548
0.17492
0.20433
0.23375
0.28019
0.32508
0.37926
0.41486
0.45975
0.49071
0.51548
0.54489
0.56502
0.56037
0.57585
0.5805
0.55573
0.56037
0.54954
0.56037
0.56037
0.54954
0.56037
0.54954
0.54025
0.55573
0.54025
0.54489
0.5356
0.50929
0.51548
0.50929
0.52012
0.50929
0.52941
0.50929
0.50464
0.51548
0.54954
0.56502
0.60991
0.62074
0.60991
0.56502
0.54954
0.50929
0.49536
0.5
0.48452
0.47059
0.47523
0.43963
0.45046
0.4644
0.47523
0.45511
0.47988
0.4644
0.4644
0.47059
0.47988
0.49071
0.47988
0.49536
0.48452
0.5
0.52012
0.52012
0.52941
0.50929
0.69969
0.87616
0.93034
0.71517
0.43498
0.30031
0.39474
0.48452
0.56037
0.61455
0.65015
0.67028
0.64551
0.59598
0.52012
0.43963
0.41022
0.38545
0.37926
0.36533
0.36997
0.36533
0.34985
0.35913
0.33437
0.32508
0.3096
0.30495
0.27399
0.26471
0.2291
0.20898
0.17957
0.16873
0.15944
0.14861
0.14861
0.16873
0.19505
0.24923
0.29412
0.3452
0.39474
0.42415
0.47523
0.50929
0.5356
0.56037
0.56966
0.5805
0.5805
0.58978
0.5805
0.58978
0.57585
0.56966
0.5805
0.5805
0.56502
0.56966
0.55573
0.56037
0.54954
0.54025
0.5356
0.52941
0.52012
0.5356
0.52012
0.52012
0.52012
0.52941
0.54025
0.54954
0.57585
0.60062
0.60526
0.57585
0.5356
0.52012
0.50929
0.49071
0.49536
0.49071
0.47988
0.45975
0.45511
0.45975
0.43963
0.45046
0.4644
0.45975
0.4644
0.47988
0.49071
0.4644
0.47523
0.49071
0.48452
0.47523
0.49536
0.52012
0.50929
0.50464
0.54025
0.69969
0.8808
0.94582
0.72601
0.43498
0.33901
0.45046
0.54025
0.60062
0.63003
0.66563
0.67028
0.62074
0.54489
0.47988
0.43498
0.41022
0.39009
0.37926
0.36997
0.35449
0.36997
0.33901
0.32508
0.32972
0.31889
0.30031
0.28947
0.27399
0.25387
0.22446
0.19969
0.18421
0.1548
0.14861
0.13467
0.13932
0.16409
0.19505
0.24458
0.30495
0.35449
0.39474
0.43963
0.47988
0.52012
0.54489
0.56966
0.5805
0.58978
0.59598
0.5805
0.58514
0.5805
0.5805
0.57585
0.56502
0.56037
0.56502
0.56037
0.54954
0.54489
0.5356
0.5356
0.5356
0.52012
0.51548
0.51548
0.51548
0.50929
0.50464
0.50929
0.52941
0.5356
0.50929
0.54954
0.59598
0.60991
0.59598
0.56502
0.52941
0.52941
0.50929
0.5
0.49071
0.49071
0.47059
0.45046
0.45511
0.45046
0.45046
0.45975
0.4644
0.47988
0.48452
0.47988
0.48452
0.49071
0.49536
0.5
0.49071
0.49071
0.50929
0.52477
0.52012
0.51548
0.60526
0.80495
0.97678
0.87152
0.58514
0.36533
0.35913
0.52941
0.58514
0.64087
0.66563
0.69505
0.65015
0.5805
0.50929
0.45046
0.41022
0.39474
0.37926
0.36997
0.35449
0.35913
0.34985
0.35449
0.33437
0.32508
0.31424
0.30031
0.28483
0.26935
0.24923
0.20898
0.18421
0.15944
0.14861
0.13932
0.14396
0.15944
0.19969
0.23375
0.28019
0.32972
0.37926
0.43034
0.47523
0.50464
0.5356
0.55573
0.56502
0.57585
0.5805
0.5805
0.5805
0.56502
0.56966
0.56966
0.57585
0.55573
0.54954
0.54489
0.54025
0.5356
0.52941
0.52477
0.52477
0.50929
0.51548
0.5
0.5
0.5
0.50929
0.52477
0.52941
0.50929
0.52477
0.55573
0.58978
0.62539
0.62074
0.58978
0.5356
0.52477
0.51548
0.50929
0.50464
0.5
0.48452
0.4644
0.4644
0.45975
0.4644
0.47059
0.47059
0.47988
0.48452
0.49071
0.49071
0.48452
0.49071
0.49536
0.48452
0.49071
0.5
0.51548
0.51548
0.50464
0.56037
0.76006
0.94118
0.97059
0.63467
0.38545
0.33901
0.49071
0.55573
0.63467
0.67028
0.69505
0.66563
0.60062
0.52012
0.44427
0.41022
0.39474
0.39009
0.37461
0.36997
0.35913
0.34985
0.3452
0.33901
0.31424
0.30031
0.29412
0.28483
0.26935
0.23375
0.21362
0.19505
0.16409
0.14861
0.14396
0.14396
0.15944
0.18885
0.22446
0.27399
0.32508
0.36997
0.41022
0.45975
0.50464
0.52477
0.54025
0.54954
0.56037
0.57585
0.5805
0.55573
0.55573
0.54954
0.54489
0.54489
0.54954
0.54489
0.5356
0.52941
0.5356
0.51548
0.52012
0.51548
0.50929
0.49071
0.49536
0.49071
0.49071
0.49071
0.49071
0.49071
0.5
0.50929
0.52012
0.54025
0.58978
0.62074
0.62539
0.58978
0.54954
0.5356
0.54954
0.49536
0.49071
0.47988
0.45511
0.43498
0.43034
0.43963
0.44427
0.45511
0.4644
0.4644
0.47523
0.47523
0.4644
0.4644
0.47059
0.47523
0.47988
0.48452
0.49536
0.51548
0.50929
0.49536
0.49071
0.67492
0.86533
0.9257
0.6904
0.42415
0.33437
0.45046
0.51548
0.58514
0.64087
0.6904
0.66563
0.63003
0.55573
0.48452
0.42415
0.39474
0.36997
0.34985
0.36997
0.34985
0.33901
0.32508
0.31889
0.3096
0.31424
0.29412
0.28019
0.26935
0.23375
0.20898
0.18885
0.18421
0.16409
0.13467
0.12848
0.14396
0.1548
0.18885
0.23994
0.26935
0.31889
0.36997
0.4195
0.45975
0.48452
0.52477
0.54954
0.56037
0.54489
0.55573
0.55573
0.56966
0.56037
0.56037
0.56037
0.56502
0.55573
0.56037
0.54025
0.54489
0.56037
0.52941
0.5356
0.51548
0.5356
0.52477
0.49536
0.50464
0.52012
0.49536
0.49071
0.49536
0.50929
0.50464
0.52941
0.56037
0.60526
0.61455
0.58514
0.56037
0.5356
0.49536
0.48452
0.47988
0.47059
0.45975
0.45511
0.44427
0.43034
0.44427
0.45046
0.4644
0.45511
0.4644
0.47059
0.4644
0.47059
0.4644
0.49071
0.47988
0.47523
0.49536
0.50929
0.52477
0.5
0.54954
0.73065
0.90557
0.96594
0.62539
0.35449
0.29412
0.41486
0.49071
0.58514
0.62539
0.66099
0.63003
0.64087
0.56037
0.49536
0.42415
0.37461
0.37461
0.36533
0.35449
0.34985
0.33901
0.33901
0.32508
0.31889
0.31424
0.30031
0.28019
0.27399
0.24923
0.22446
0.19505
0.17957
0.1548
0.13932
0.14861
0.1548
0.17492
0.19505
0.2291
0.28483
0.33901
0.38545
0.4195
0.45975
0.50464
0.5356
0.5356
0.56037
0.57585
0.5805
0.57585
0.5805
0.57585
0.57585
0.5805
0.56966
0.57585
0.56502
0.56037
0.55573
0.54954
0.55573
0.5356
0.54025
0.5356
0.52941
0.52941
0.51548
0.52477
0.52477
0.52477
0.51548
0.5356
0.56502
0.60062
0.60526
0.59598
0.56037
0.51548
0.52477
0.50464
0.48452
0.48452
0.47988
0.47059
0.45046
0.45046
0.45975
0.4644
0.4644
0.47988
0.48452
0.47059
0.47988
0.48452
0.49071
0.49071
0.49536
0.49536
0.49071
0.50929
0.52941
0.52941
0.52012
0.58978
0.79567
0.97059
0.97678
0.60991
0.38545
0.36533
0.51548
0.5805
0.64087
0.67492
0.69505
0.66099
0.58978
0.51548
0.44427
0.41022
0.39938
0.38545
0.37461
0.36997
0.36533
0.36533
0.35913
0.35449
0.32508
0.31889
0.30031
0.28947
0.26471
0.23994
0.21981
0.19505
0.16873
0.1548
0.13932
0.1548
0.15944
0.19969
0.23994
0.28947
0.32972
0.38545
0.42415
0.47059
0.51548
0.54489
0.56502
0.56966
0.5805
0.58978
0.60062
0.58514
0.5805
0.5805
0.5805
0.56502
0.56966
0.56966
0.56502
0.56037
0.54025
0.54954
0.55573
0.54025
0.5356
0.52941
0.52941
0.52012
0.51548
0.50929
0.50929
0.52477
0.5356
0.54025
0.55573
0.59598
0.62539
0.63467
0.62539
0.57585
0.54025
0.54489
0.52941
0.51548
0.51548
0.50929
0.49071
0.4644
0.4644
0.4644
0.47059
0.48452
0.49071
0.49536
0.49071
0.5
0.50929
0.50464
0.49536
0.49071
0.5
0.5
0.52477
0.5356
0.52477
0.51548
0.65015
0.85604
0.98142
0.80495
0.52477
0.34985
0.43034
0.52012
0.58978
0.65015
0.69505
0.71517
0.64551
0.57585
0.5
0.43498
0.41022
0.39474
0.38545
0.37461
0.36997
0.36997
0.35913
0.3452
0.32972
0.32508
0.30495
0.30031
0.28483
0.25387
0.23375
0.20898
0.18885
0.16409
0.14396
0.14396
0.1548
0.17492
0.20898
0.24923
0.29412
0.33901
0.38545
0.44427
0.48452
0.51548
0.5356
0.55573
0.56037
0.56966
0.57585
0.56502
0.56966
0.56502
0.56966
0.55573
0.54954
0.54489
0.54489
0.54025
0.5356
0.52012
0.51548
0.51548
0.50929
0.49536
0.49071
0.49536
0.49071
0.49071
0.49071
0.49071
0.49536
0.5
0.49536
0.50929
0.54025
0.58514
0.62074
0.63467
0.58514
0.52941
0.51548
0.50464
0.50464
0.48452
0.47523
0.4644
0.43963
0.43498
0.43963
0.45046
0.45511
0.45975
0.4644
0.47523
0.47059
0.4644
0.4644
0.47988
0.49536
0.47523
0.47059
0.49071
0.50464
0.50929
0.49536
0.52012
0.6904
0.89628
0.9613
0.69505
0.41486
0.31424
0.45511
0.54025
0.59598
0.64087
0.6904
0.66099
0.59598
0.52477
0.45511
0.41486
0.39938
0.39009
0.34985
0.36997
0.34985
0.33901
0.32972
0.32508
0.32972
0.31889
0.30031
0.30031
0.26935
0.23994
0.21981
0.19505
0.17492
0.15944
0.1548
0.12848
0.14396
0.17957
0.21362
0.25387
0.30495
0.35913
0.4195
0.47059
0.48452
0.47988
0.52941
0.55573
0.56037
0.56037
0.56966
0.57585
0.56037
0.5805
0.56502
0.54025
0.5356
0.56037
0.54489
0.5356
0.54025
0.50929
0.5
0.50929
0.50464
0.51548
0.49536
0.5
0.50464
0.5
0.49536
0.52012
0.51548
0.52012
0.5
0.52941
0.59598
0.61455
0.62539
0.60991
0.56502
0.52477
0.50929
0.49071
0.49071
0.49071
0.49071
0.47523
0.43498
0.42415
0.43963
0.45975
0.4644
0.4644
0.47523
0.47523
0.47988
0.50464
0.48452
0.44427
0.43034
0.4644
0.47523
0.5
0.50464
0.5
0.51548
0.66099
0.8452
0.92105
0.75077
0.45511
0.32508
0.43034
0.52941
0.56502
0.60991
0.67028
0.68576
0.62074
0.55573
0.47988
0.40402
0.37926
0.36997
0.39474
0.33437
0.31889
0.32508
0.32972
0.3096
0.30031
0.30031
0.29412
0.30031
0.27399
0.24458
0.19505
0.20433
0.1548
0.10836
0.10372
0.12384
0.13467
0.17957
0.15944
0.20433
0.28483
0.31889
0.40402
0.38545
0.47523
0.47988
0.43963
0.50464
0.54489
0.5805
0.50464
0.52941
0.52477
0.57585
0.5356
0.52477
0.54489
0.59598
0.52477
0.52012
0.54025
0.57585
0.58978
0.48452
0.49071
0.49536
0.50929
0.49536
0.5
0.49536
0.52477
0.5
0.55573
0.47523
0.45511
0.52477
0.56966
0.60062
0.62539
0.64551
0.54025
0.56037
0.4644
0.45046
0.47523
0.49536
0.43498
0.44427
0.43034
0.47059
0.43498
0.45046
0.4644
0.49536
0.47059
0.4644
0.44427
0.43963
0.51548
0.47523
0.4644
0.45511
0.49536
0.5356
0.49536
0.49071
0.52477
0.72601
0.90093
0.93653
0.60062
0.35449
0.29412
0.45046
0.48452
0.56037
0.64087
0.62539
0.60991
0.66099
0.54489
0.47988
0.43498
0.37926
0.35913
0.35449
0.35913
0.34985
0.35913
0.33901
0.31889
0.30031
0.33437
0.30031
0.3096
0.26006
0.20898
0.22446
0.20898
0.16409
0.1548
0.10836
0.14861
0.15944
0.12384
0.17957
0.24458
0.26471
0.38545
0.39938
0.36997
0.43498
0.47523
0.52941
0.54489
0.57585
0.63003
0.58514
0.61455
0.56966
0.54025
0.59598
0.65015
0.75077
0.79102
0.82043
0.8452
0.50929
0.24458
0.35913
0.49536
0.47988
0.56037
0.60062
0.67492
0.68576
0.63003
0.59598
0.5356
0.47523
0.48452
0.52012
0.57585
0.49071
0.47523
0.4644
0.43034
0.40402
0.39938
0.41486
0.39474
0.41022
0.35913
0.32972
0.27399
0.30495
0.32508
0.35913
0.39009
0.40402
0.39009
0.42415
0.45975
0.50464
0.52012
0.54954
0.57585
0.60062
0.51548
0.54489
0.57585
0.54489
0.52941
0.54025
0.52941
0.52477
0.55573
0.56502
0.47523
0.49536
0.49071
0.52012
0.54489
0.5
0.52477
0.50929
0.50929
0.50929
0.49536
0.50929
0.5356
0.50464
0.4644
0.47523
0.49536
0.50929
0.49071
0.50929
0.48452
0.49536
0.50929
0.52941
0.49536
0.45511
0.47523
0.49071
0.47988
0.4644
0.49071
0.49536
0.52012
0.49536
0.49071
0.5
0.49071
0.49071
0.50929
0.5
0.48452
0.47523
0.4644
0.4644
0.47059
0.50464
0.51548
0.4644
0.47523
0.4644
0.47523
0.48452
0.49071
0.52941
0.47523
0.45511
0.47059
0.49536
0.49071
0.48452
0.47988
0.50929
0.47523
0.48452
0.50464
0.51548
0.50929
0.48452
0.52012
0.56502
0.58514
0.58978
0.56037
0.54025
0.52012
0.49536
0.4644
0.45975
0.4644
0.45511
0.45975
0.45046
0.43034
0.39474
0.42415
0.45046
0.43498
0.43034
0.45975
0.45046
0.4644
0.45975
0.47059
0.49071
0.4644
0.45511
0.47988
0.45511
0.49536
0.71981
0.89628
0.93653
0.64551
0.34985
0.28019
0.40402
0.5
0.54489
0.58514
0.6548
0.60991
0.56966
0.54025
0.43963
0.40402
0.39009
0.38545
0.34985
0.3452
0.32972
0.32508
0.3452
0.3452
0.3096
0.30031
0.3096
0.28019
0.30031
0.25387
0.20898
0.20433
0.21362
0.16873
0.17957
0.16873
0.17957
0.20433
0.23994
0.26935
0.3096
0.35913
0.40402
0.45975
0.52012
0.49536
0.51548
0.54025
0.59598
0.54489
0.52941
0.5356
0.55573
0.56037
0.56966
0.5805
0.56502
0.5356
0.50464
0.50929
0.51548
0.5356
0.52012
0.51548
0.52012
0.51548
0.56966
0.49536
0.45975
0.48452
0.4644
0.47059
0.49071
0.5
0.50929
0.50464
0.52941
0.57585
0.60991
0.63003
0.63467
0.5356
0.52941
0.5356
0.52012
0.50929
0.50464
0.50929
0.52941
0.5356
0.43498
0.45511
0.47988
0.45975
0.48452
0.49071
0.44427
0.4644
0.49071
0.4644
0.45975
0.5
0.4644
0.45975
0.50464
0.56037
0.49071
0.48452
0.62074
0.85139
0.94118
0.75077
0.47988
0.36533
0.43963
0.52012
0.58514
0.6548
0.68111
0.66563
0.62539
0.56966
0.47988
0.39009
0.37461
0.36997
0.37926
0.35449
0.32508
0.32508
0.33901
0.3452
0.3096
0.29412
0.30031
0.23994
0.23375
0.24923
0.19969
0.17492
0.1548
0.13467
0.16409
0.16873
0.12384
0.16409
0.20898
0.26006
0.29412
0.31889
0.36533
0.4195
0.47988
0.50929
0.52941
0.54954
0.51548
0.56502
0.59598
0.55573
0.52477
0.52477
0.5356
0.52941
0.54489
0.56966
0.54954
0.50464
0.49536
0.5356
0.49536
0.49071
0.54025
0.47523
0.47059
0.49071
0.52941
0.5356
0.47059
0.4644
0.50929
0.50929
0.50464
0.54025
0.58978
0.60991
0.63003
0.62074
0.54025
0.5
0.52012
0.5
0.48452
0.49071
0.47523
0.48452
0.45511
0.44427
0.43498
0.41022
0.45046
0.43963
0.45511
0.4644
0.47988
0.47523
0.5
0.50929
0.51548
0.47059
0.43498
0.49071
0.50464
0.48452
0.47988
0.64087
0.82043
0.95666
0.78638
0.52012
0.31424
0.39009
0.49536
0.55573
0.62539
0.68111
0.69505
0.64087
0.62074
0.48452
0.39938
0.37461
0.34985
0.33437
0.33901
0.35449
0.3452
0.34985
0.32508
0.35449
0.3096
0.29412
0.25387
0.2291
0.21362
0.19969
0.18885
0.19505
0.16873
0.14861
0.18421
0.12384
0.1548
0.14396
0.21362
0.2291
0.26935
0.33437
0.39938
0.45046
0.49071
0.45511
0.52012
0.52012
0.54489
0.56037
0.56502
0.60062
0.58514
0.52477
0.52012
0.5356
0.52477
0.5356
0.52012
0.51548
0.52941
0.5356
0.52941
0.55573
0.47059
0.4644
0.47988
0.4644
0.47059
0.49536
0.47988
0.5
0.52941
0.51548
0.5356
0.56037
0.58978
0.60526
0.58514
0.52941
0.54489
0.49071
0.5
0.47988
0.50464
0.43963
0.42415
0.43963
0.42415
0.44427
0.47059
0.4644
0.44427
0.43498
0.47523
0.47523
0.45511
0.45975
0.47523
0.45511
0.4644
0.48452
0.45046
0.47523
0.52012
0.51548
0.66563
0.88545
0.93653
0.66563
0.39938
0.3096
0.41486
0.47523
0.56037
0.60991
0.64551
0.6548
0.62539
0.5805
0.47059
0.43034
0.37926
0.39009
0.37461
0.35449
0.35913
0.32508
0.3096
0.33901
0.30495
0.30031
0.28483
0.30031
0.30495
0.26471
0.20433
0.19969
0.16409
0.1548
0.12848
0.1192
0.12848
0.16409
0.19969
0.21981
0.28019
0.31889
0.37461
0.39938
0.45975
0.49536
0.5
0.52012
0.54954
0.60062
0.59598
0.57585
0.62539
0.56966
0.5805
0.54025
0.54954
0.58514
0.58978
0.5356
0.5356
0.56037
0.5356
0.5356
0.56502
0.50929
0.51548
0.5
0.50464
0.50929
0.52012
0.51548
0.52477
0.50464
0.57585
0.54954
0.56502
0.58514
0.59598
0.51548
0.50464
0.51548
0.4644
0.5
0.52012
0.44427
0.41486
0.43963
0.45511
0.45046
0.47059
0.51548
0.47988
0.49536
0.51548
0.48452
0.47059
0.45975
0.49071
0.48452
0.47523
0.51548
0.5356
0.54954
0.50464
0.56502
0.73994
0.89628
0.94118
0.69505
0.43034
0.3452
0.47523
0.54954
0.58514
0.63467
0.67028
0.66099
0.69505
0.47523
0.4195
0.39009
0.36533
0.39474
0.37461
0.35449
0.3452
0.36533
0.37461
0.39474
0.30031
0.33901
0.27399
0.28019
0.26471
0.22446
0.20433
0.19969
0.17492
0.1548
0.12848
0.1548
0.12848
0.12384
0.19969
0.2291
0.27399
0.32972
0.37461
0.42415
0.49536
0.54025
0.57585
0.60526
0.52941
0.56502
0.60526
0.56037
0.54025
0.5356
0.55573
0.56502
0.56037
0.56037
0.56502
0.52477
0.5356
0.54954
0.56037
0.50464
0.49536
0.50464
0.52941
0.54025
0.49071
0.50929
0.49071
0.50929
0.47523
0.50929
0.5356
0.61455
0.63003
0.60062
0.5805
0.5356
0.51548
0.5
0.50464
0.4644
0.48452
0.47523
0.48452
0.43498
0.41486
0.45046
0.45975
0.43963
0.47059
0.45975
0.47523
0.47059
0.49071
0.5
0.51548
0.47523
0.52477
0.49536
0.48452
0.50929
0.47988
0.51548
0.71517
0.92105
0.98142
0.71981
0.45975
0.35913
0.49071
0.52012
0.59598
0.6548
0.67492
0.6548
0.62074
0.54489
0.45511
0.39474
0.39009
0.37461
0.38545
0.33437
0.35449
0.33901
0.31889
0.33901
0.3452
0.29412
0.28947
0.28483
0.26471
0.25387
0.26935
0.17957
0.15944
0.17492
0.15944
0.11455
0.10372
0.14861
0.21362
0.23994
0.29412
0.3452
0.38545
0.4644
0.48452
0.54025
0.54489
0.50464
0.52477
0.54954
0.56037
0.54489
0.54025
0.56037
0.56966
0.5805
0.55573
0.5356
0.50929
0.50929
0.52012
0.52477
0.50929
0.49536
0.49071
0.49536
0.48452
0.52012
0.5
0.50929
0.47059
0.5
0.50929
0.52941
0.51548
0.54954
0.60062
0.62074
0.62539
0.5805
0.54025
0.52941
0.5
0.47988
0.50929
0.4644
0.43963
0.43963
0.45511
0.43498
0.43963
0.45511
0.4644
0.49071
0.49071
0.44427
0.4644
0.4644
0.43963
0.45975
0.4644
0.47523
0.49071
0.51548
0.5356
0.50464
0.5805
0.7709
0.91641
0.9257
0.56966
0.35449
0.32972
0.47988
0.54489
0.64087
0.66563
0.71053
0.64551
0.58978
0.50929
0.41022
0.37926
0.35913
0.35913
0.35913
0.36997
0.34985
0.33901
0.33437
0.38545
0.28947
0.27399
0.30031
0.25387
0.25387
0.22446
0.19505
0.17957
0.16409
0.1548
0.17492
0.18421
0.12384
0.14861
0.20433
0.24923
0.31889
0.37461
0.41022
0.45975
0.49071
0.48452
0.52477
0.56502
0.58978
0.55573
0.54489
0.56037
0.54489
0.54025
0.56502
0.5356
0.52941
0.54025
0.54489
0.54954
0.54025
0.54489
0.49071
0.49071
0.49536
0.49071
0.5
0.48452
0.49536
0.49071
0.52012
0.50464
0.52941
0.54489
0.5356
0.54489
0.59598
0.62539
0.60062
0.58514
0.52477
0.52941
0.49536
0.49071
0.49536
0.48452
0.4644
0.43963
0.43963
0.43963
0.43963
0.45046
0.49071
0.49536
0.45511
0.45046
0.47059
0.47988
0.45975
0.4644
0.45511
0.47523
0.50929
0.50464
0.52477
0.5356
0.57585
0.73994
0.91022
0.92105
0.56502
0.32508
0.30495
0.47523
0.57585
0.63467
0.63003
0.67492
0.66099
0.57585
0.50464
0.44427
0.41486
0.36533
0.36997
0.3452
0.35449
0.3452
0.31889
0.30031
0.3096
0.31889
0.32508
0.3096
0.2291
0.21362
0.20898
0.19969
0.15944
0.17492
0.13932
0.14396
0.12848
0.1192
0.16873
0.20433
0.26935
0.34985
0.31424
0.33437
0.39474
0.45046
0.5
0.52012
0.52941
0.56037
0.56502
0.5805
0.58514
0.59598
0.55573
0.54954
0.55573
0.5356
0.52941
0.54954
0.56037
0.54489
0.5356
0.52012
0.5356
0.52941
0.56502
0.48452
0.5356
0.49536
0.47523
0.49536
0.50464
0.50929
0.5
0.52941
0.5356
0.60991
0.65015
0.61455
0.54025
0.55573
0.51548
0.49071
0.47059
0.47988
0.49536
0.44427
0.43963
0.47059
0.47059
0.47988
0.44427
0.41486
0.44427
0.45975
0.4644
0.49071
0.49071
0.45975
0.47059
0.49536
0.5
0.49536
0.54954
0.47059
0.4644
0.64087
0.8452
0.95046
0.7709
0.47988
0.31889
0.41022
0.49071
0.48452
0.60526
0.62539
0.6548
0.62074
0.58978
0.52477
0.4644
0.41486
0.39938
0.36533
0.38545
0.36533
0.33437
0.32508
0.33901
0.32508
0.34985
0.29412
0.28947
0.28483
0.26935
0.22446
0.20433
0.18421
0.15944
0.14396
0.13932
0.1548
0.13467
0.18885
0.20898
0.27399
0.30495
0.35449
0.38545
0.42415
0.47988
0.52477
0.54489
0.55573
0.58978
0.60526
0.56966
0.58514
0.62539
0.56502
0.54489
0.56966
0.54954
0.56502
0.56502
0.54954
0.5356
0.54025
0.5356
0.58514
0.54954
0.5356
0.50929
0.5
0.54954
0.5
0.49071
0.50929
0.51548
0.54489
0.59598
0.63467
0.64551
0.60526
0.55573
0.50929
0.50464
0.51548
0.4644
0.4644
0.45975
0.47523
0.47988
0.43963
0.43963
0.45975
0.48452
0.50929
0.48452
0.45046
0.45975
0.47523
0.50929
0.47988
0.49071
0.48452
0.49536
0.48452
0.50929
0.52941
0.52012
0.71981
0.8452
0.95666
0.76625
0.49536
0.41022
0.43498
0.49536
0.56037
0.63003
0.66563
0.67028
0.62539
0.58514
0.47523
0.41486
0.39009
0.39474
0.40402
0.35449
0.3452
0.34985
0.33437
0.3452
0.33901
0.3452
0.30031
0.28947
0.27399
0.28019
0.2291
0.19505
0.19969
0.13467
0.11455
0.10836
0.12848
0.17957
0.16873
0.22446
0.27399
0.37461
0.39009
0.41486
0.44427
0.50464
0.52941
0.56037
0.5805
0.57585
0.59598
0.60062
0.60526
0.62539
0.55573
0.54489
0.58514
0.54954
0.52941
0.52477
0.54954
0.54489
0.54025
0.56037
0.55573
0.56037
0.54489
0.50464
0.49071
0.52941
0.50464
0.50929
0.48452
0.50464
0.52941
0.56037
0.60991
0.62074
0.62539
0.56502
0.54954
0.55573
0.49071
0.47523
0.50464
0.50929
0.4644
0.47523
0.44427
0.43963
0.47059
0.49071
0.50464
0.51548
0.45975
0.47523
0.47059
0.50464
0.48452
0.50464
0.47523
0.47988
0.49536
0.50929
0.5356
0.54489
0.58514
0.78638
0.95046
0.9613
0.62074
0.39938
0.35913
0.48452
0.54489
0.63467
0.69969
0.73529
0.66099
0.58514
0.47988
0.42415
0.40402
0.41022
0.39474
0.36533
0.37461
0.35449
0.3452
0.35449
0.36533
0.32972
0.33437
0.29412
0.28483
0.23994
0.2291
0.22446
0.17957
0.18421
0.15944
0.13467
0.13932
0.16873
0.22446
0.27399
0.25387
0.3096
0.36997
0.4195
0.4644
0.49536
0.5356
0.58514
0.59598
0.54489
0.56966
0.56502
0.58514
0.57585
0.5805
0.54025
0.52477
0.54025
0.56037
0.56037
0.54489
0.52941
0.54954
0.56037
0.50929
0.5
0.49536
0.52941
0.49071
0.49071
0.50929
0.51548
0.5
0.52941
0.54489
0.5356
0.60526
0.61455
0.60062
0.61455
0.56502
0.54489
0.54954
0.5
0.50464
0.5
0.48452
0.47523
0.49071
0.45046
0.43034
0.4644
0.44427
0.43963
0.4644
0.51548
0.5356
0.44427
0.4644
0.47988
0.5
0.49071
0.47988
0.5
0.50929
0.49071
0.54489
0.62539
0.79102
0.94118
0.78638
0.52012
0.34985
0.42415
0.50929
0.5805
0.65015
0.69505
0.72601
0.61455
0.54489
0.4644
0.39938
0.39009
0.39474
0.36533
0.35449
0.36533
0.36997
0.36533
0.32508
0.31889
0.31424
0.3096
0.33901
0.24923
0.23375
0.21981
0.22446
0.19969
0.16873
0.14861
0.15944
0.16873
0.1548
0.17957
0.23375
0.31889
0.33901
0.32972
0.41022
0.45511
0.50929
0.54489
0.5356
0.54954
0.55573
0.56037
0.5805
0.58514
0.57585
0.54025
0.51548
0.54489
0.56037
0.54025
0.50929
0.52012
0.5356
0.52012
0.50929
0.52012
0.52477
0.52012
0.5
0.47523
0.49071
0.50929
0.49071
0.51548
0.54489
0.49536
0.52477
0.5805
0.63003
0.67028
0.56966
0.52477
0.51548
0.5356
0.5
0.49071
0.47988
0.45511
0.45975
0.48452
0.43963
0.45046
0.42415
0.45046
0.48452
0.47059
0.47988
0.43963
0.45975
0.47988
0.48452
0.50929
0.49536
0.47523
0.50929
0.5356
0.48452
0.52012
0.71981
0.90557
0.94582
0.65015
0.36533
0.31424
0.47988
0.5356
0.64087
0.63003
0.68576
0.67492
0.63467
0.56966
0.47059
0.38545
0.37926
0.37461
0.41022
0.32508
0.31424
0.33901
0.32972
0.33901
0.3452
0.35913
0.28483
0.24458
0.24923
0.26006
0.21362
0.17957
0.14861
0.13467
0.14396
0.14861
0.18421
0.17957
0.19505
0.21362
0.28019
0.32972
0.39009
0.39474
0.44427
0.47059
0.5356
0.54954
0.57585
0.60526
0.56037
0.5356
0.5805
0.54954
0.54489
0.57585
0.52941
0.5356
0.54025
0.5356
0.54489
0.56037
0.54954
0.56037
0.54025
0.50464
0.51548
0.52477
0.50464
0.5356
0.50464
0.52941
0.50929
0.50929
0.52012
0.50929
0.62539
0.65015
0.58978
0.5805
0.57585
0.52477
0.52941
0.5
0.47988
0.49071
0.47988
0.4644
0.45511
0.4644
0.4195
0.45511
0.49071
0.45975
0.44427
0.45975
0.45511
0.47988
0.5
0.48452
0.49071
0.50929
0.49071
0.5
0.52477
0.50929
0.5356
0.69505
0.8808
0.94118
0.68576
0.37926
0.29412
0.4195
0.47988
0.57585
0.64551
0.63003
0.62074
0.6548
0.52941
0.47988
0.42415
0.41022
0.37926
0.38545
0.32972
0.33901
0.3452
0.33437
0.39474
0.31424
0.27399
0.28019
0.26471
0.28483
0.24923
0.21981
0.19969
0.16409
0.1548
0.1548
0.14861
0.19505
0.20898
0.13932
0.20433
0.26935
0.3452
0.37461
0.39474
0.44427
0.49536
0.52941
0.5805
0.5805
0.57585
0.5805
0.58514
0.60991
0.61455
0.56966
0.5805
0.5805
0.5805
0.60062
0.63003
0.56502
0.54489
0.56502
0.58514
0.5356
0.52012
0.50929
0.5356
0.5
0.49536
0.49071
0.52012
0.52941
0.50929
0.52941
0.59598
0.60526
0.56966
0.57585
0.5356
0.52941
0.50929
0.50929
0.49071
0.47988
0.5356
0.43498
0.40402
0.4195
0.43498
0.45511
0.47523
0.45046
0.48452
0.45511
0.4644
0.47988
0.54025
0.54489
0.45046
0.45046
0.47988
0.51548
0.50929
0.52477
0.60991
0.75542
0.89628
0.93653
0.66563
0.41486
0.32972
0.43034
0.50929
0.58978
0.63467
0.6548
0.64087
0.60526
0.5356
0.45975
0.44427
0.40402
0.39938
0.34985
0.34985
0.36533
0.34985
0.3452
0.35449
0.33901
0.3096
0.30031
0.32508
0.28947
0.26006
0.20898
0.16873
0.1548
0.13467
0.14396
0.16409
0.15944
0.15944
0.19505
0.26006
0.30495
0.3452
0.41022
0.43963
0.47988
0.5
0.54025
0.58514
0.5805
0.59598
0.60526
0.62539
0.57585
0.56966
0.5805
0.58978
0.5805
0.58978
0.56502
0.54489
0.56966
0.55573
0.54489
0.54954
0.52941
0.50464
0.50929
0.52941
0.52477
0.5356
0.54025
0.52941
0.52477
0.54025
0.52012
0.56502
0.60526
0.63467
0.60062
0.54489
0.50929
0.51548
0.5
0.50464
0.49536
0.50464
0.47988
0.4644
0.4644
0.44427
0.43034
0.45046
0.47059
0.49536
0.50464
0.47059
0.49071
0.4644
0.47523
0.48452
0.48452
0.47988
0.50464
0.51548
0.52012
0.47988
0.54954
0.75077
0.95046
0.98142
0.64551
0.38545
0.33437
0.48452
0.55573
0.61455
0.66563
0.68576
0.65015
0.62539
0.49536
0.4195
0.39009
0.38545
0.39474
0.37926
0.35449
0.33901
0.3452
0.32972
0.33901
0.31424
0.3096
0.3452
0.26935
0.2291
0.21981
0.22446
0.18421
0.18885
0.14396
0.16409
0.14396
0.13932
0.17492
0.20433
0.24923
0.32508
0.35449
0.40402
0.45046
0.48452
0.54025
0.52941
0.52012
0.56037
0.54954
0.52941
0.5356
0.54025
0.54489
0.5356
0.5356
0.52012
0.56502
0.50929
0.52477
0.55573
0.52941
0.51548
0.5356
0.54954
0.56037
0.52477
0.52477
0.54489
0.51548
0.52012
0.5356
0.54489
0.52941
0.54954
0.5805
0.55573
0.58978
0.61455
0.64087
0.56966
0.5356
0.52941
0.50929
0.50929
0.5356
0.5
0.47523
0.49536
0.45046
0.42415
0.43963
0.43963
0.45975
0.45511
0.48452
0.49071
0.50464
0.49536
0.5
0.50464
0.5356
0.56502
0.49536
0.47059
0.4644
0.48452
0.60526
0.81579
0.97678
0.86533
0.55573
0.34985
0.3452
0.54954
0.57585
0.62539
0.64551
0.65015
0.63003
0.56966
0.49536
0.43963
0.41486
0.41486
0.37926
0.36997
0.36533
0.38545
0.39474
0.36997
0.33437
0.30031
0.30031
0.31424
0.30031
0.28019
0.25387
0.21981
0.19505
0.18885
0.17492
0.16409
0.17957
0.16409
0.24923
0.2291
0.27399
0.32508
0.39938
0.43963
0.47059
0.51548
0.54025
0.56037
0.56502
0.5805
0.58514
0.60062
0.60526
0.63467
0.58978
0.5356
0.5
0.52477
0.54489
0.5356
0.52941
0.52941
0.5356
0.5356
0.52012
0.52941
0.52477
0.51548
0.52941
0.57585
0.51548
0.49071
0.49536
0.5356
0.50929
0.5356
0.5805
0.63467
0.65015
0.62539
0.5805
0.55573
0.56966
0.5356
0.51548
0.4644
0.47523
0.47988
0.47059
0.43963
0.42415
0.45511
0.4644
0.47059
0.49536
0.4644
0.48452
0.48452
0.49071
0.5
0.47988
0.47523
0.49536
0.50929
0.49536
0.50929
0.5356
0.62539
0.78019
0.91641
0.82043
0.54489
0.3452
0.33901
0.52941
0.5805
0.62539
0.66099
0.69505
0.67028
0.60062
0.51548
0.43498
0.39938
0.37926
0.36997
0.37461
0.39009
0.34985
0.33901
0.31889
0.32508
0.31424
0.35449
0.28947
0.27399
0.24923
0.21981
0.20898
0.18885
0.17957
0.17492
0.15944
0.1548
0.17492
0.16873
0.20898
0.26471
0.31889
0.36997
0.40402
0.45046
0.47059
0.50929
0.5356
0.54025
0.57585
0.58978
0.56502
0.55573
0.56502
0.56037
0.56966
0.5805
0.56502
0.54954
0.55573
0.54489
0.54954
0.55573
0.52477
0.52012
0.5356
0.54025
0.50929
0.51548
0.50929
0.50929
0.50464
0.52477
0.56037
0.50464
0.50929
0.56037
0.59598
0.62539
0.60526
0.56966
0.52477
0.51548
0.52477
0.49536
0.50464
0.45975
0.43963
0.4644
0.47059
0.44427
0.43498
0.47059
0.45046
0.47988
0.49536
0.45511
0.4644
0.44427
0.4644
0.49536
0.48452
0.48452
0.47523
0.52477
0.52941
0.51548
0.67492
0.87152
0.93034
0.72601
0.43034
0.28019
0.38545
0.49536
0.55573
0.60991
0.64087
0.64551
0.63003
0.56966
0.52477
0.43498
0.39938
0.39009
0.36997
0.39474
0.32972
0.32508
0.3452
0.33901
0.3452
0.32508
0.30495
0.3096
0.27399
0.24923
0.2291
0.21362
0.18885
0.16409
0.16873
0.12384
0.13467
0.14396
0.17957
0.2291
0.26006
0.3096
0.38545
0.41022
0.45975
0.49536
0.49071
0.54489
0.56502
0.57585
0.58978
0.56037
0.55573
0.57585
0.56502
0.57585
0.56037
0.56037
0.5805
0.56037
0.54025
0.52941
0.5356
0.5356
0.5356
0.54489
0.50929
0.52012
0.56502
0.51548
0.48452
0.49536
0.49536
0.51548
0.54489
0.5805
0.60991
0.60526
0.5805
0.54954
0.52941
0.52012
0.49071
0.49536
0.45975
0.43963
0.43034
0.42415
0.44427
0.45046
0.4644
0.47059
0.4644
0.47523
0.4644
0.47059
0.49071
0.47059
0.47988
0.47059
0.49071
0.5
0.51548
0.52941
0.5356
0.50929
0.70588
0.88545
0.9613
0.71053
0.43498
0.35913
0.49536
0.50464
0.57585
0.62074
0.66099
0.63467
0.58514
0.52477
0.45975
0.42415
0.39474
0.38545
0.36997
0.37461
0.39009
0.34985
0.36997
0.33901
0.32508
0.32972
0.30031
0.30031
0.27399
0.25387
0.23375
0.20898
0.18421
0.15944
0.17492
0.14861
0.14396
0.16409
0.19969
0.23375
0.28019
0.33901
0.39474
0.45046
0.5
0.54489
0.56037
0.56966
0.59598
0.60526
0.56502
0.56037
0.56966
0.58514
0.5805
0.58514
0.57585
0.55573
0.54954
0.54954
0.54489
0.57585
0.52477
0.5356
0.54489
0.50929
0.52941
0.54025
0.49071
0.5
0.50929
0.5356
0.5
0.49071
0.54954
0.60062
0.63003
0.60062
0.57585
0.52941
0.52012
0.5
0.50929
0.54489
0.48452
0.43963
0.43963
0.45046
0.45975
0.44427
0.4644
0.47059
0.47988
0.50929
0.48452
0.47059
0.49536
0.50929
0.47059
0.45511
0.48452
0.49536
0.50929
0.51548
0.50929
0.5805
0.78638
0.97678
1.0015
0.66099
0.34985
0.3096
0.47988
0.52477
0.61455
0.66099
0.69505
0.67028
0.57585
0.52012
0.45046
0.41022
0.36997
0.35449
0.34985
0.36533
0.37461
0.36533
0.35913
0.32508
0.33437
0.30495
0.28483
0.26935
0.25387
0.23375
0.22446
0.22446
0.19505
0.13932
0.13467
0.14396
0.13467
0.18885
0.23375
0.26935
0.31889
0.36997
0.43034
0.47059
0.48452
0.52012
0.52941
0.54025
0.55573
0.56037
0.57585
0.5805
0.59598
0.55573
0.54025
0.56037
0.5805
0.52012
0.50464
0.51548
0.50929
0.52941
0.51548
0.50464
0.50929
0.50464
0.49071
0.5356
0.54025
0.49536
0.4644
0.5
0.5
0.50929
0.52477
0.56966
0.62074
0.64551
0.63467
0.58978
0.49071
0.48452
0.50464
0.49536
0.49536
0.48452
0.45975
0.44427
0.45511
0.45046
0.4644
0.43963
0.47988
0.45046
0.43963
0.45975
0.47523
0.47988
0.4644
0.4644
0.4644
0.47988
0.49071
0.50929
0.52941
0.5
0.60062
0.81579
0.95666
0.79567
0.50929
0.32508
0.39938
0.49071
0.56037
0.63467
0.67492
0.6904
0.65015
0.56966
0.47523
0.4195
0.36533
0.35449
0.35913
0.3452
0.34985
0.36533
0.36997
0.32972
0.32972
0.32508
0.31424
0.27399
0.28483
0.23375
0.21981
0.20433
0.17492
0.15944
0.14396
0.1548
0.14396
0.17492
0.21362
0.26471
0.28947
0.28019
0.35913
0.42415
0.48452
0.49071
0.52012
0.56037
0.54489
0.56037
0.56037
0.55573
0.56966
0.56037
0.5356
0.5356
0.54025
0.54954
0.56502
0.52477
0.52941
0.50929
0.5356
0.54489
0.49071
0.50464
0.48452
0.47988
0.50464
0.49071
0.48452
0.5
0.51548
0.52941
0.56037
0.60062
0.60526
0.63467
0.65015
0.56037
0.52477
0.51548
0.50464
0.49536
0.4644
0.45975
0.45046
0.44427
0.48452
0.4644
0.42415
0.45511
0.44427
0.45511
0.45975
0.45046
0.45975
0.4644
0.49536
0.4644
0.47059
0.4644
0.49536
0.50464
0.48452
0.49071
0.60991
0.80031
0.94118
0.79102
0.50464
0.31424
0.36997
0.52477
0.52941
0.58514
0.62074
0.6548
0.62074
0.57585
0.50464
0.44427
0.40402
0.39474
0.34985
0.35449
0.33437
0.30031
0.31424
0.3096
0.3452
0.3096
0.28483
0.28947
0.26935
0.24458
0.2291
0.24458
0.15944
0.14861
0.15944
0.11455
0.10836
0.12848
0.16409
0.20898
0.24458
0.3096
0.36533
0.39474
0.4195
0.47059
0.4644
0.52012
0.52477
0.54489
0.56966
0.60062
0.60526
0.52012
0.54489
0.54954
0.54954
0.56966
0.57585
0.54025
0.5356
0.54954
0.56037
0.54025
0.49071
0.51548
0.52941
0.5
0.50929
0.52012
0.5
0.48452
0.54954
0.49536
0.51548
0.56037
0.5805
0.62074
0.57585
0.50929
0.50464
0.50929
0.52012
0.47988
0.45046
0.45046
0.44427
0.45975
0.42415
0.4195
0.43963
0.45975
0.49536
0.45511
0.47059
0.49071
0.43963
0.45511
0.45046
0.48452
0.49071
0.47523
0.51548
0.49071
0.5
0.56966
0.76625
0.90557
0.9257
0.60062
0.32972
0.26006
0.40402
0.50464
0.55573
0.57585
0.60991
0.63003
0.65015
0.52941
0.44427
0.39474
0.4195
0.35913
0.32972
0.32508
0.32972
0.33901
0.33901
0.35449
0.34985
0.3096
0.28483
0.24923
0.23994
0.25387
0.19969
0.20433
0.16409
0.14861
0.16409
0.17957
0.10836
0.14861
0.19969
0.2291
0.30031
0.3452
0.37461
0.43498
0.45046
0.52477
0.54954
0.56037
0.56966
0.58514
0.60526
0.62539
0.57585
0.58514
0.59598
0.57585
0.60526
0.57585
0.56502
0.60062
0.62074
0.54954
0.52941
0.54025
0.54025
0.52477
0.5356
0.54025
0.56037
0.52477
0.52012
0.54489
0.52012
0.60062
0.60991
0.5805
0.56966
0.54954
0.50464
0.49071
0.49071
0.5
0.47523
0.49536
0.45975
0.43498
0.41022
0.41486
0.45511
0.47523
0.43963
0.4644
0.47523
0.47059
0.47523
0.45975
0.4644
0.47059
0.4644
0.47988
0.52941
0.5356
0.49071
0.50464
0.58978
0.80495
0.94582
0.95046
0.60062
0.36533
0.3452
0.50929
0.58514
0.64551
0.66099
0.69505
0.63467
0.60062
0.49536
0.4195
0.39009
0.38545
0.36997
0.35913
0.36997
0.3452
0.33901
0.32972
0.33437
0.32972
0.37461
0.27399
0.26935
0.23375
0.23375
0.21362
0.19969
0.16409
0.13467
0.14396
0.15944
0.19505
0.24923
0.19969
0.24458
0.31424
0.39009
0.41486
0.45975
0.49536
0.52941
0.54954
0.5805
0.54489
0.5356
0.56966
0.57585
0.59598
0.54489
0.5356
0.56966
0.5805
0.54954
0.56966
0.52477
0.52012
0.55573
0.50929
0.5
0.49536
0.50464
0.54954
0.50929
0.57585
0.48452
0.43498
0.47523
0.50464
0.54025
0.60062
0.60991
0.63003
0.58978
0.58514
0.5
0.47523
0.47988
0.4644
0.50464
0.47988
0.45511
0.47059
0.48452
0.43498
0.4644
0.47523
0.49536
0.50929
0.45975
0.47059
0.49071
0.47988
0.50929
0.48452
0.44427
0.48452
0.50929
0.5356
0.52941
0.51548
0.76625
0.94118
0.9613
0.60991
0.36997
0.34985
0.4644
0.52941
0.59598
0.64551
0.68111
0.64551
0.59598
0.54489
0.54954
0.41486
0.36997
0.32508
0.31424
0.32972
0.32508
0.3452
0.32972
0.33437
0.32972
0.35913
0.37926
0.24923
0.23375
0.18885
0.18421
0.16409
0.15944
0.15944
0.18421
0.19969
0.15944
0.1548
0.20898
0.26935
0.31424
0.35449
0.41486
0.44427
0.50929
0.56037
0.5356
0.52477
0.54489
0.56966
0.55573
0.52941
0.5356
0.5356
0.54954
0.54025
0.56502
0.5805
0.54489
0.54489
0.5
0.49536
0.5356
0.49071
0.48452
0.49071
0.49071
0.50929
0.50464
0.49536
0.50929
0.50464
0.49071
0.52941
0.56037
0.5805
0.58978
0.60991
0.55573
0.50929
0.50464
0.52477
0.5356
0.50929
0.47523
0.45511
0.43963
0.47059
0.45511
0.47059
0.40402
0.43498
0.45511
0.47523
0.4644
0.4644
0.47988
0.47988
0.5
0.52477
0.54954
0.47523
0.45046
0.47523
0.45975
0.51548
0.72601
0.95666
0.96594
0.64087
0.39009
0.33437
0.45046
0.54489
0.62074
0.63003
0.67028
0.63003
0.55573
0.50464
0.43498
0.39938
0.41486
0.36997
0.35449
0.37926
0.3452
0.34985
0.32508
0.31889
0.32972
0.3096
0.29412
0.30031
0.26935
0.23994
0.19969
0.18421
0.18421
0.19969
0.13932
0.11455
0.13932
0.20433
0.2291
0.23375
0.28947
0.34985
0.41486
0.45975
0.52477
0.51548
0.49536
0.49071
0.52012
0.56037
0.58514
0.55573
0.54489
0.55573
0.5356
0.56966
0.59598
0.51548
0.50464
0.49536
0.50929
0.54489
0.54954
0.5
0.49071
0.50929
0.5356
0.49071
0.4644
0.4644
0.49536
0.51548
0.5356
0.52477
0.50464
0.56502
0.60062
0.63003
0.63467
0.58978
0.56037
0.52012
0.5356
0.48452
0.50929
0.4644
0.44427
0.43034
0.42415
0.4644
0.45975
0.48452
0.45046
0.43498
0.45046
0.47523
0.49536
0.45046
0.49536
0.45975
0.44427
0.47059
0.49071
0.49536
0.48452
0.52477
0.60526
0.73994
0.89164
0.80495
0.56966
0.31424
0.28019
0.45511
0.54025
0.61455
0.68576
0.6904
0.58978
0.5805
0.50464
0.44427
0.38545
0.37926
0.35449
0.34985
0.38545
0.41022
