0.37451
0.37451
0.38039
0.38431
0.39412
0.40392
0.41569
0.41961
0.41961
0.41569
0.4
0.38431
0.37451
0.37451
0.37451
0.38039
0.37451
0.37451
0.3549
0.33922
0.38431
0.56471
0.77059
0.81176
0.66471
0.5098
0.42549
0.39412
0.38431
0.37451
0.37451
0.37451
0.37451
0.38039
0.38039
0.38431
0.38431
0.3902
0.39412
0.40392
0.41569
0.42549
0.43922
0.44902
0.46078
0.47059
0.48431
0.4902
0.49412
0.49412
0.48431
0.47059
0.44902
0.42941
0.40392
0.38431
0.37451
0.37451
0.37451
0.37451
0.37451
0.38039
0.37451
0.37451
0.37451
0.37451
0.37451
0.38039
0.38431
0.3902
0.38431
0.38431
0.38431
0.38431
0.38431
0.38039
0.38431
0.38431
0.38431
0.38431
0.38039
0.38039
0.37451
0.37451
0.38039
0.38431
0.39412
0.4
0.40392
0.41569
0.41961
0.41961
0.42549
0.42549
0.41569
0.40392
0.39412
0.3902
0.38431
0.38039
0.38039
0.38039
0.37059
0.3549
0.38039
0.51961
0.73137
0.82549
0.72549
0.56078
0.44902
0.40392
0.39412
0.38039
0.38039
0.38039
0.38039
0.38039
0.38039
0.38039
0.38431
0.39412
0.4
0.41569
0.41961
0.42549
0.43529
0.4451
0.46078
0.47059
0.48039
0.4902
0.49412
0.49412
0.48431
0.47059
0.4451
0.42549
0.40392
0.39412
0.38431
0.38039
0.37451
0.37059
0.37059
0.37059
0.37059
0.37451
0.37451
0.38039
0.38039
0.38039
0.38039
0.37451
0.38039
0.38039
0.38431
0.38431
0.38431
0.38431
0.38431
0.38431
0.38039
0.38039
0.37451
0.37451
0.38039
0.38431
0.38431
0.38039
0.38039
0.38431
0.3902
0.4
0.41569
0.41961
0.42549
0.42549
0.41569
0.40392
0.3902
0.38039
0.38039
0.38431
0.38431
0.38431
0.3902
0.36471
0.34902
0.40392
0.6
0.8
0.83529
0.67059
0.52941
0.44902
0.41569
0.39412
0.38039
0.38039
0.38039
0.38039
0.38431
0.39412
0.39412
0.39412
0.4
0.40392
0.4098
0.41961
0.42941
0.43922
0.44902
0.46471
0.48039
0.48431
0.4902
0.49412
0.5
0.4902
0.47451
0.44902
0.42941
0.40392
0.38431
0.38039
0.37451
0.37451
0.37451
0.38039
0.38039
0.37451
0.37451
0.37451
0.37059
0.37059
0.37451
0.37451
0.38039
0.38039
0.38039
0.38039
0.38039
0.37451
0.37451
0.37451
0.37451
0.38039
0.38039
0.38431
0.38039
0.37451
0.37059
0.37059
0.37451
0.38039
0.3902
0.4
0.40392
0.41569
0.41569
0.41961
0.41569
0.41569
0.40392
0.3902
0.38039
0.37451
0.37451
0.37059
0.37059
0.35882
0.3451
0.33529
0.38039
0.56078
0.76667
0.80588
0.66471
0.5098
0.42549
0.39412
0.38039
0.37451
0.37451
0.37059
0.36471
0.35882
0.36471
0.37059
0.37451
0.38039
0.38431
0.39412
0.4
0.41569
0.41961
0.43529
0.4451
0.46471
0.48039
0.4902
0.4902
0.4902
0.48039
0.46078
0.43529
0.41961
0.4
0.38431
0.37451
0.37059
0.36471
0.35882
0.35882
0.35882
0.36471
0.37059
0.37451
0.38039
0.38039
0.38039
0.37451
0.37451
0.38039
0.38039
0.38039
0.38431
0.38431
0.38431
0.38039
0.37451
0.37059
0.37059
0.37059
0.37059
0.37059
0.37059
0.37451
0.37451
0.37451
0.37451
0.38431
0.4
0.40392
0.41569
0.41569
0.41569
0.4
0.38431
0.37451
0.37059
0.37059
0.37059
0.37451
0.37451
0.35882
0.33922
0.36471
0.51569
0.73137
0.81176
0.7
0.53529
0.43529
0.4
0.38431
0.37451
0.37059
0.37059
0.37059
0.37451
0.38039
0.38431
0.3902
0.3902
0.3902
0.39412
0.40392
0.41569
0.42549
0.43922
0.4549
0.46471
0.47451
0.48039
0.48431
0.48039
0.47451
0.46471
0.4451
0.41961
0.4
0.38039
0.37059
0.35882
0.35882
0.35882
0.36471
0.37059
0.37059
0.37059
0.37059
0.37059
0.37059
0.37451
0.38039
0.38039
0.38039
0.38431
0.38431
0.38039
0.37451
0.37451
0.37451
0.38039
0.38431
0.38039
0.38039
0.37451
0.37451
0.37451
0.37451
0.37451
0.38039
0.38431
0.39412
0.40392
0.4098
0.41569
0.4098
0.40392
0.4
0.39412
0.38431
0.38039
0.37451
0.37451
0.37451
0.37059
0.35882
0.33922
0.37059
0.51961
0.7451
0.83137
0.72157
0.5549
0.44902
0.4098
0.39412
0.38431
0.38039
0.37451
0.37451
0.38039
0.38039
0.38039
0.38431
0.39412
0.4
0.40392
0.41569
0.42549
0.43529
0.4451
0.46078
0.47451
0.48431
0.49412
0.5
0.5
0.4902
0.47451
0.44902
0.42941
0.4098
0.39412
0.38431
0.38431
0.38039
0.38039
0.38039
0.38039
0.37451
0.37451
0.37451
0.38431
0.3902
0.39412
0.39412
0.39412
0.39412
0.39412
0.39412
0.39412
0.4
0.4
0.4
0.4
0.39412
0.39412
0.39412
0.3902
0.3902
0.39412
0.39412
0.39412
0.4
0.40392
0.40392
0.41569
0.41961
0.42549
0.42549
0.42549
0.41961
0.40392
0.39412
0.39412
0.3902
0.3902
0.39412
0.39412
0.38431
0.36471
0.3549
0.46078
0.67647
0.83137
0.78627
0.63529
0.5
0.43922
0.41569
0.39412
0.38039
0.37451
0.37451
0.37451
0.37451
0.38039
0.38431
0.38431
0.3902
0.39412
0.4
0.40392
0.41569
0.42941
0.4451
0.4549
0.47059
0.48039
0.48431
0.48431
0.48039
0.47059
0.44902
0.42941
0.41569
0.4
0.38039
0.37059
0.36471
0.36471
0.36471
0.37059
0.37059
0.37451
0.37451
0.37451
0.37451
0.37451
0.37451
0.37451
0.37451
0.38039
0.38039
0.38039
0.38039
0.37451
0.37451
0.37059
0.37059
0.37451
0.37451
0.37059
0.37059
0.37059
0.36471
0.36471
0.37451
0.38039
0.38431
0.4
0.4098
0.41569
0.41569
0.41569
0.40392
0.4
0.39412
0.3902
0.38431
0.38431
0.38039
0.37451
0.37059
0.3451
0.33922
0.44902
0.66471
0.82157
0.77059
0.6098
0.47451
0.41569
0.3902
0.38039
0.38039
0.37451
0.37451
0.37451
0.37451
0.37451
0.37451
0.38039
0.38431
0.39412
0.40392
0.41569
0.42549
0.43529
0.4451
0.46078
0.48039
0.48431
0.49412
0.5
0.49412
0.48431
0.46471
0.43922
0.41569
0.4
0.3902
0.38431
0.38431
0.38039
0.38039
0.38039
0.37451
0.37451
0.37451
0.38039
0.38039
0.38431
0.38431
0.3902
0.38431
0.38431
0.38431
0.38431
0.3902
0.3902
0.3902
0.39412
0.38431
0.38039
0.38039
0.38039
0.37451
0.37451
0.37451
0.38039
0.3902
0.39412
0.4
0.40392
0.4098
0.41569
0.41961
0.41569
0.40392
0.39412
0.38431
0.38039
0.38039
0.38039
0.38039
0.38039
0.37059
0.34902
0.38431
0.53529
0.75098
0.81569
0.7
0.53529
0.43922
0.40392
0.4
0.3902
0.38039
0.37451
0.37451
0.37451
0.37451
0.38039
0.38431
0.39412
0.39412
0.40392
0.4098
0.41961
0.42549
0.43529
0.44902
0.46471
0.48039
0.4902
0.49412
0.4902
0.48039
0.46078
0.43922
0.41961
0.40392
0.39412
0.38431
0.37451
0.37059
0.36471
0.36471
0.37059
0.37059
0.37059
0.37059
0.37059
0.37451
0.37451
0.37059
0.37451
0.37451
0.38039
0.38039
0.38039
0.38039
0.38039
0.38039
0.37451
0.37451
0.38039
0.38039
0.37451
0.37451
0.38039
0.38039
0.38039
0.38431
0.3902
0.4
0.4098
0.41569
0.41961
0.41569
0.40392
0.39412
0.38039
0.37451
0.37451
0.38039
0.38039
0.38039
0.37059
0.34902
0.33922
0.44902
0.66078
0.81569
0.76667
0.6098
0.47451
0.41961
0.4
0.38431
0.37451
0.37451
0.37451
0.37451
0.38039
0.38431
0.38431
0.38431
0.3902
0.39412
0.40392
0.41569
0.42941
0.4451
0.46078
0.47059
0.48039
0.48431
0.4902
0.4902
0.4902
0.48039
0.46078
0.43922
0.41961
0.4
0.38431
0.37451
0.37451
0.37451
0.37451
0.38039
0.38039
0.37451
0.37451
0.37451
0.37451
0.37451
0.38039
0.38039
0.38431
0.38431
0.38431
0.38431
0.38039
0.38431
0.38039
0.38039
0.38431
0.38431
0.38039
0.38039
0.38039
0.37451
0.37451
0.38039
0.38431
0.39412
0.4
0.4098
0.41569
0.41961
0.41961
0.41961
0.41569
0.40392
0.39412
0.38431
0.38431
0.38039
0.38039
0.37451
0.37059
0.34902
0.33922
0.4098
0.60588
0.79608
0.83137
0.66471
0.52549
0.43922
0.40392
0.38431
0.37451
0.37059
0.37059
0.37059
0.37059
0.37059
0.37451
0.37451
0.38431
0.39412
0.4
0.40392
0.41569
0.41961
0.43529
0.4451
0.46078
0.47059
0.48039
0.48431
0.48039
0.47059
0.44902
0.42549
0.40392
0.38431
0.37451
0.37059
0.35882
0.3549
0.3549
0.3549
0.3549
0.3549
0.36471
0.37059
0.37059
0.37451
0.37451
0.37451
0.37059
0.37059
0.37059
0.37059
0.37451
0.37451
0.37451
0.37451
0.37059
0.37059
0.37059
0.37059
0.37059
0.37059
0.37451
0.37451
0.37451
0.37451
0.38039
0.3902
0.4
0.40392
0.4098
0.4098
0.40392
0.3902
0.38039
0.37059
0.37059
0.37059
0.37451
0.37451
0.37059
0.3451
0.33922
0.42941
0.63529
0.7902
0.79608
0.60588
0.47059
0.41569
0.39412
0.38039
0.37451
0.37451
0.37059
0.37451
0.37451
0.38039
0.38431
0.3902
0.39412
0.4
0.40392
0.4098
0.41961
0.43529
0.4451
0.46078
0.47059
0.48039
0.48431
0.48431
0.48039
0.46471
0.4451
0.42941
0.4098
0.39412
0.37451
0.37059
0.37059
0.36471
0.35882
0.35882
0.36471
0.37059
0.37059
0.37059
0.37059
0.37451
0.37451
0.37451
0.38039
0.38039
0.38039
0.38039
0.38039
0.38039
0.37451
0.37451
0.37451
0.37451
0.37451
0.37451
0.37451
0.37059
0.37059
0.37451
0.38039
0.38431
0.39412
0.40392
0.41569
0.41569
0.41569
0.40392
0.39412
0.38039
0.37451
0.37451
0.38039
0.38039
0.37451
0.37451
0.35882
0.33529
0.36471
0.51961
0.7451
0.81569
0.70588
0.53922
0.43922
0.4
0.38431
0.38039
0.38039
0.38039
0.38039
0.38039
0.38431
0.38431
0.38431
0.3902
0.4
0.40392
0.41569
0.42549
0.43529
0.4451
0.4549
0.47059
0.48039
0.48431
0.4902
0.4902
0.48431
0.46471
0.43922
0.41961
0.4
0.38431
0.37451
0.37451
0.37059
0.37059
0.37059
0.37059
0.37451
0.37451
0.37451
0.38039
0.38039
0.38431
0.38431
0.38431
0.38039
0.38039
0.38039
0.38039
0.38039
0.38431
0.38431
0.3902
0.38431
0.38431
0.38039
0.38039
0.38039
0.38039
0.38431
0.3902
0.39412
0.39412
0.4
0.40392
0.4098
0.41569
0.41961
0.41569
0.40392
0.39412
0.38431
0.38431
0.38039
0.38039
0.38039
0.38039
0.36471
0.3549
0.41569
0.60588
0.8
0.83529
0.67059
0.51961
0.43922
0.4098
0.39412
0.38039
0.37059
0.37059
0.37451
0.37451
0.37451
0.38039
0.3902
0.39412
0.4
0.40392
0.4098
0.41569
0.42549
0.43922
0.4549
0.47059
0.48431
0.4902
0.49412
0.4902
0.47451
0.46078
0.4451
0.41961
0.40392
0.39412
0.38039
0.37059
0.37059
0.37059
0.37059
0.37059
0.37059
0.37059
0.37059
0.37059
0.37451
0.37451
0.37451
0.37451
0.37451
0.38039
0.38039
0.38039
0.38039
0.37451
0.37451
0.37451
0.37451
0.37451
0.37059
0.37451
0.37451
0.37451
0.37059
0.37059
0.37451
0.38039
0.3902
0.4
0.4098
0.41569
0.41569
0.4098
0.4
0.3902
0.38039
0.38039
0.37451
0.37451
0.37451
0.37451
0.36471
0.33529
0.3451
0.46078
0.68039
0.81569
0.7451
0.58431
0.47059
0.4098
0.38039
0.37059
0.37059
0.36471
0.37059
0.37059
0.37451
0.38039
0.38039
0.38431
0.38431
0.39412
0.4
0.41569
0.42941
0.43922
0.44902
0.46471
0.47451
0.48431
0.4902
0.49412
0.4902
0.48039
0.46078
0.43529
0.4098
0.3902
0.38039
0.37451
0.37059
0.37059
0.37059
0.37451
0.37059
0.37059
0.37059
0.37059
0.37059
0.37059
0.37451
0.38039
0.38039
0.38039
0.38039
0.37451
0.37451
0.37451
0.38039
0.38431
0.3902
0.38431
0.38431
0.38039
0.37451
0.37451
0.37451
0.38039
0.38431
0.38431
0.39412
0.4
0.40392
0.4098
0.41569
0.41569
0.4098
0.39412
0.38431
0.38431
0.38431
0.38431
0.38431
0.38039
0.37059
0.34902
0.35882
0.46471
0.67647
0.82157
0.75098
0.5902
0.46078
0.4098
0.39412
0.38431
0.38039
0.38039
0.38039
0.37451
0.37451
0.38039
0.38431
0.39412
0.4
0.40392
0.41569
0.41961
0.42549
0.43922
0.44902
0.46471
0.48039
0.4902
0.49412
0.49412
0.4902
0.47451
0.4549
0.42941
0.41569
0.39412
0.38431
0.37451
0.37059
0.36471
0.35882
0.35882
0.35882
0.35882
0.37059
0.37059
0.37451
0.37451
0.37059
0.37059
0.37059
0.37059
0.37451
0.37451
0.38039
0.38431
0.38039
0.38039
0.37451
0.37451
0.37451
0.37451
0.38039
0.38431
0.38431
0.38431
0.3902
0.39412
0.4
0.4098
0.41961
0.41961
0.42549
0.42549
0.41569
0.4
0.38431
0.38039
0.38039
0.37451
0.37451
0.38039
0.37059
0.3451
0.33529
0.4451
0.6549
0.80588
0.7549
0.6
0.47059
0.41569
0.3902
0.38039
0.37059
0.36471
0.36471
0.37059
0.37451
0.38039
0.38431
0.39412
0.39412
0.39412
0.4
0.4098
0.41961
0.43529
0.44902
0.46471
0.47059
0.48039
0.48431
0.48431
0.48039
0.46471
0.44902
0.43529
0.4098
0.39412
0.38039
0.37451
0.37059
0.37059
0.37059
0.37059
0.37059
0.37059
0.37059
0.37059
0.37059
0.37059
0.37451
0.37451
0.38039
0.38039
0.38431
0.38039
0.38039
0.38039
0.38039
0.38039
0.38039
0.38431
0.3902
0.38431
0.38039
0.38039
0.38039
0.38039
0.38431
0.39412
0.40392
0.41569
0.41961
0.41961
0.41961
0.41569
0.41569
0.40392
0.4
0.3902
0.38431
0.38431
0.38431
0.38039
0.37059
0.35882
0.33922
0.37059
0.51961
0.7451
0.83529
0.72549
0.56471
0.46078
0.41569
0.3902
0.37451
0.37451
0.37451
0.37451
0.37059
0.37451
0.37451
0.37451
0.38039
0.39412
0.4
0.40392
0.41569
0.42549
0.43529
0.4451
0.46078
0.47451
0.48431
0.4902
0.4902
0.48039
0.46078
0.43922
0.41569
0.4
0.38431
0.37451
0.37059
0.36471
0.36471
0.35882
0.35882
0.36471
0.36471
0.36471
0.37059
0.37451
0.37451
0.38039
0.38039
0.38039
0.37451
0.37451
0.37451
0.38039
0.38039
0.38039
0.38039
0.37451
0.37451
0.37059
0.37059
0.37059
0.37451
0.37451
0.38039
0.38039
0.38039
0.38039
0.3902
0.4
0.40392
0.41569
0.41569
0.40392
0.39412
0.37451
0.37059
0.37059
0.37451
0.37451
0.37451
0.37059
0.3549
0.3451
0.40392
0.5902
0.77647
0.81176
0.6451
0.5
0.42549
0.39412
0.37451
0.36471
0.35882
0.36471
0.36471
0.37059
0.37451
0.37451
0.38039
0.38039
0.38431
0.39412
0.4
0.4098
0.41961
0.43922
0.46078
0.47059
0.48039
0.48039
0.48431
0.48039
0.47059
0.46078
0.43529
0.41569
0.39412
0.38039
0.37059
0.35882
0.3549
0.3549
0.3549
0.3549
0.35882
0.3549
0.3549
0.3549
0.3549
0.35882
0.35882
0.37059
0.37451
0.37451
0.37451
0.37451
0.37451
0.37059
0.37059
0.37451
0.38039
0.38039
0.38039
0.38039
0.38039
0.37451
0.37451
0.38039
0.38039
0.3902
0.4
0.40392
0.41569
0.4098
0.40392
0.4
0.39412
0.38431
0.38431
0.38431
0.38039
0.37451
0.37451
0.37059
0.34902
0.33529
0.4098
0.6098
0.7902
0.81176
0.62549
0.48431
0.4098
0.38431
0.37451
0.37451
0.37451
0.37451
0.37451
0.38039
0.38039
0.38039
0.38039
0.38431
0.39412
0.4
0.41569
0.42549
0.42941
0.43922
0.44902
0.46471
0.47451
0.48431
0.4902
0.4902
0.47451
0.4549
0.42941
0.4098
0.3902
0.38039
0.37451
0.37059
0.37059
0.36471
0.36471
0.35882
0.35882
0.35882
0.35882
0.37059
0.37059
0.37059
0.37059
0.37451
0.37451
0.37451
0.37451
0.37451
0.37059
0.37451
0.37451
0.38039
0.37451
0.37059
0.37059
0.37059
0.37451
0.37451
0.38039
0.38039
0.38431
0.38431
0.4
0.40392
0.41569
0.41961
0.41961
0.41961
0.4098
0.39412
0.38431
0.37451
0.37451
0.37451
0.37451
0.37451
0.35882
0.34902
0.3902
0.5549
0.76078
0.81176
0.68039
0.52549
0.42941
0.40392
0.3902
0.38039
0.37451
0.37059
0.37059
0.37451
0.37451
0.38039
0.38431
0.3902
0.39412
0.4
0.40392
0.41569
0.42549
0.43922
0.44902
0.46471
0.48039
0.4902
0.4902
0.48431
0.48039
0.46471
0.4451
0.41961
0.4
0.38431
0.37451
0.37059
0.35882
0.35882
0.35882
0.36471
0.37059
0.37451
0.37451
0.38039
0.37451
0.37451
0.37451
0.37451
0.38039
0.38039
0.38039
0.38039
0.37451
0.37451
0.37451
0.37451
0.38039
0.38039
0.38039
0.38039
0.38431
0.38039
0.38039
0.38039
0.38431
0.38431
0.39412
0.40392
0.41569
0.41961
0.41961
0.41961
0.41569
0.40392
0.39412
0.38431
0.38431
0.38431
0.38431
0.38431
0.37451
0.3549
0.33922
0.40392
0.59608
0.79608
0.83137
0.67059
0.52941
0.43922
0.4
0.38039
0.37059
0.37059
0.37059
0.37059
0.37059
0.37451
0.37451
0.38039
0.38431
0.3902
0.4
0.4098
0.41961
0.42549
0.43922
0.44902
0.46078
0.47059
0.48039
0.4902
0.4902
0.48039
0.4549
0.43529
0.4098
0.3902
0.38039
0.37451
0.37059
0.35882
0.35882
0.35882
0.3549
0.3549
0.3549
0.35882
0.35882
0.36471
0.37059
0.37059
0.37451
0.37059
0.37059
0.37059
0.37059
0.37451
0.38039
0.38039
0.38039
0.37451
0.38039
0.37451
0.37059
0.37059
0.37451
0.37451
0.38039
0.38431
0.3902
0.39412
0.4
0.40392
0.4098
0.41569
0.41569
0.40392
0.39412
0.38039
0.37451
0.37451
0.37059
0.37059
0.36471
0.34902
0.33529
0.37451
0.53529
0.7451
0.8
0.68039
0.52549
0.43529
0.4
0.38431
0.37451
0.37451
0.37059
0.37451
0.37451
0.37451
0.38431
0.3902
0.39412
0.4
0.40392
0.40392
0.41569
0.42549
0.43922
0.4549
0.47059
0.48039
0.4902
0.48431
0.48039
0.47059
0.4549
0.43922
0.41961
0.4
0.38431
0.37451
0.36471
0.35882
0.35882
0.35882
0.35882
0.37059
0.37059
0.37059
0.37059
0.37059
0.37059
0.37059
0.37451
0.37451
0.38039
0.38039
0.38039
0.38039
0.37451
0.37059
0.37059
0.37059
0.37059
0.37451
0.37451
0.37451
0.37451
0.37451
0.38039
0.38431
0.38431
0.4
0.41569
0.41961
0.41961
0.41961
0.41569
0.40392
0.3902
0.38431
0.38431
0.38431
0.38431
0.38039
0.37451
0.3549
0.33529
0.38431
0.5549
0.76078
0.80588
0.67059
0.51961
0.42549
0.39412
0.38039
0.37451
0.37059
0.37059
0.37451
0.37451
0.38039
0.38039
0.38431
0.38431
0.39412
0.4
0.4098
0.41961
0.43529
0.4451
0.46078
0.47059
0.48039
0.4902
0.49412
0.49412
0.48431
0.47059
0.44902
0.41961
0.4
0.38039
0.37451
0.37451
0.37451
0.37451
0.37451
0.37451
0.37451
0.37451
0.37451
0.37451
0.37451
0.38039
0.38039
0.38039
0.38039
0.38039
0.38039
0.38039
0.38039
0.38039
0.38431
0.38431
0.38431
0.38431
0.38039
0.37451
0.37451
0.38039
0.38039
0.38431
0.39412
0.4
0.40392
0.41569
0.41961
0.41961
0.41961
0.41961
0.4098
0.39412
0.38431
0.37451
0.37451
0.37059
0.37059
0.37059
0.35882
0.3451
0.36471
0.5098
0.72549
0.81569
0.7098
0.5549
0.44902
0.4098
0.39412
0.38431
0.38039
0.37451
0.37059
0.37059
0.37451
0.38039
0.38431
0.38431
0.39412
0.4
0.40392
0.41569
0.42549
0.43529
0.4451
0.46471
0.48039
0.4902
0.49412
0.49412
0.48431
0.46471
0.4451
0.42549
0.4098
0.39412
0.38431
0.37451
0.37059
0.37059
0.36471
0.37059
0.37451
0.37451
0.37451
0.38039
0.38039
0.38039
0.38039
0.38039
0.38039
0.38431
0.38431
0.38431
0.38431
0.38431
0.38039
0.38039
0.38039
0.38039
0.38039
0.38039
0.38039
0.38039
0.37451
0.37451
0.38039
0.38431
0.3902
0.39412
0.40392
0.41569
0.41961
0.41961
0.41961
0.40392
0.39412
0.38431
0.38431
0.38431
0.38039
0.38039
0.37451
0.35882
0.3451
0.36471
0.5098
0.72549
0.82549
0.72549
0.57059
0.46471
0.41569
0.3902
0.37059
0.36471
0.36471
0.37059
0.37059
0.37059
0.37059
0.37451
0.38039
0.38039
0.3902
0.4
0.4098
0.41961
0.42941
0.4451
0.4549
0.46471
0.48039
0.48431
0.4902
0.48431
0.47059
0.44902
0.41961
0.4
0.38431
0.37451
0.37451
0.37451
0.37451
0.37059
0.36471
0.35882
0.35882
0.36471
0.36471
0.37059
0.37451
0.37451
0.38039
0.38039
0.38431
0.38039
0.38039
0.38039
0.38039
0.38039
0.38039
0.38431
0.38431
0.38039
0.38039
0.37451
0.38039
0.38039
0.38431
0.3902
0.4
0.4
0.40392
0.4098
0.41569
0.41961
0.41569
0.4098
0.4
0.3902
0.38431
0.38039
0.38039
0.37451
0.38039
0.37059
0.34902
0.35882
0.47059
0.68039
0.80588
0.73529
0.57451
0.4549
0.4098
0.39412
0.38431
0.38431
0.38039
0.37451
0.37451
0.38039
0.38039
0.3902
0.39412
0.4
0.40392
0.4098
0.41961
0.42941
0.43922
0.44902
0.46471
0.48039
0.4902
0.49412
0.49412
0.48431
0.47059
0.4549
0.43529
0.41569
0.4
0.38431
0.38039
0.37059
0.36471
0.35882
0.36471
0.35882
0.35882
0.37059
0.37451
0.37451
0.37451
0.37059
0.37451
0.37451
0.38039
0.38039
0.38431
0.38431
0.38039
0.38039
0.38039
0.37451
0.37059
0.37059
0.37451
0.38039
0.37451
0.37451
0.37451
0.38039
0.38039
0.39412
0.40392
0.41569
0.41961
0.41961
0.41961
0.4098
0.39412
0.3902
0.38431
0.38039
0.38039
0.38431
0.38431
0.37059
0.3451
0.33922
0.4451
0.65098
0.80588
0.81176
0.60588
0.47451
0.41569
0.39412
0.38039
0.37451
0.37059
0.37059
0.37451
0.37451
0.38039
0.38039
0.38039
0.38039
0.3902
0.4
0.4098
0.41961
0.43529
0.4451
0.46078
0.47059
0.48039
0.48431
0.4902
0.48431
0.47059
0.4549
0.42941
0.4098
0.3902
0.38039
0.37059
0.37059
0.37451
0.37451
0.37451
0.37451
0.37451
0.37451
0.37059
0.37451
0.37451
0.37451
0.37451
0.37451
0.38039
0.38039
0.37451
0.37059
0.37059
0.37451
0.37451
0.38039
0.38039
0.38039
0.37451
0.37451
0.38039
0.38039
0.38039
0.38431
0.39412
0.4
0.4098
0.41569
0.41569
0.41569
0.41569
0.4098
0.4
0.39412
0.3902
0.38431
0.38431
0.38039
0.38039
0.38039
0.35882
0.34902
0.42941
0.63529
0.81569
0.83529
0.65098
0.51569
0.43922
0.40392
0.39412
0.38431
0.38039
0.38039
0.37451
0.37451
0.37451
0.37451
0.38039
0.39412
0.4
0.40392
0.41569
0.42549
0.43529
0.4451
0.46078
0.48039
0.4902
0.49412
0.5
0.49412
0.48039
0.46078
0.43529
0.41569
0.4
0.38431
0.38039
0.37451
0.37059
0.37059
0.37059
0.37059
0.36471
0.37059
0.37059
0.37451
0.37451
0.37451
0.37451
0.37451
0.37451
0.37451
0.38039
0.38039
0.38039
0.38039
0.37451
0.37451
0.37059
0.37059
0.37451
0.37451
0.37451
0.38039
0.38039
0.38039
0.38431
0.3902
0.4
0.40392
0.41569
0.41961
0.41961
0.41569
0.4
0.38431
0.37451
0.37059
0.37059
0.37059
0.37059
0.37451
0.3549
0.33922
0.35882
0.4902
0.7098
0.81176
0.71569
0.56078
0.46078
0.41569
0.39412
0.38039
0.37451
0.37451
0.37451
0.38039
0.38431
0.3902
0.39412
0.39412
0.39412
0.4
0.40392
0.41569
0.42549
0.43922
0.4549
0.47059
0.48039
0.48431
0.4902
0.48431
0.48039
0.47059
0.4451
0.41961
0.4
0.38431
0.37059
0.35882
0.35882
0.35882
0.35882
0.36471
0.36471
0.35882
0.36471
0.36471
0.37059
0.37059
0.37059
0.38039
0.38431
0.38431
0.38039
0.38039
0.37451
0.37451
0.37451
0.38039
0.38039
0.37451
0.37451
0.37059
0.37059
0.37059
0.37059
0.37059
0.38039
0.38431
0.39412
0.40392
0.41569
0.41569
0.4098
0.40392
0.4
0.3902
0.38431
0.38039
0.38039
0.38039
0.38039
0.37451
0.35882
0.33922
0.38431
0.53922
0.75098
0.81176
0.69608
0.53922
0.43922
0.4
0.39412
0.38431
0.38431
0.38039
0.38039
0.38039
0.38431
0.38431
0.38431
0.39412
0.40392
0.4098
0.41961
0.42549
0.43529
0.4451
0.4549
0.47059
0.48431
0.49412
0.50588
0.5
0.48431
0.46471
0.4451
0.41961
0.4
0.38431
0.38039
0.38039
0.37451
0.37451
0.37059
0.37059
0.37059
0.37059
0.37059
0.37059
0.37451
0.37451
0.38039
0.38039
0.38039
0.38039
0.38039
0.38039
0.38039
0.38431
0.38431
0.38431
0.38039
0.38039
0.38039
0.37451
0.37451
0.38039
0.38039
0.38039
0.38431
0.39412
0.4
0.40392
0.4098
0.41569
0.41961
0.41569
0.40392
0.39412
0.38039
0.37059
0.37059
0.37059
0.37059
0.37059
0.3549
0.33922
0.38431
0.55098
0.7549
0.81176
0.67647
0.51961
0.42941
0.4
0.3902
0.37451
0.37059
0.37059
0.37059
0.37451
0.38039
0.38431
0.38431
0.39412
0.39412
0.4
0.40392
0.41569
0.42941
0.43922
0.4549
0.47059
0.48039
0.48431
0.48431
0.48431
0.47451
0.46078
0.4451
0.42549
0.40392
0.39412
0.38039
0.37451
0.37059
0.37059
0.37059
0.37059
0.37451
0.37451
0.37451
0.37451
0.38039
0.38039
0.38039
0.38039
0.38431
0.3902
0.3902
0.3902
0.39412
0.3902
0.38431
0.38431
0.38431
0.38039
0.38431
0.38431
0.38431
0.38039
0.38039
0.38039
0.38431
0.39412
0.4
0.41569
0.41961
0.41961
0.41961
0.41569
0.40392
0.39412
0.38431
0.38431
0.38431
0.38431
0.38431
0.38039
0.36471
0.33922
0.35882
0.5
0.72157
0.83137
0.74118
0.58431
0.47451
0.41961
0.39412
0.38039
0.37059
0.37059
0.37059
0.37451
0.37451
0.38039
0.38039
0.38431
0.38431
0.39412
0.40392
0.41569
0.41961
0.42549
0.43922
0.4549
0.46471
0.48039
0.48431
0.4902
0.48431
0.47059
0.44902
0.42941
0.40392
0.38431
0.38039
0.37451
0.37059
0.37059
0.37451
0.37451
0.37059
0.37059
0.37059
0.37451
0.37451
0.37451
0.37451
0.37451
0.37451
0.37059
0.37059
0.37059
0.37059
0.37451
0.38039
0.37451
0.37451
0.37451
0.37059
0.37059
0.37059
0.37059
0.37059
0.37451
0.38431
0.3902
0.39412
0.4
0.40392
0.41569
0.41569
0.41961
0.4098
0.4
0.3902
0.38431
0.38039
0.38039
0.38039
0.38039
0.37451
0.3549
0.37059
0.48431
0.7
0.82157
0.74118
0.58039
0.46471
0.41569
0.4
0.38431
0.38039
0.37451
0.37059
0.37059
0.37451
0.38039
0.3902
0.39412
0.4
0.40392
0.40392
0.41569
0.42549
0.43529
0.4451
0.46078
0.48039
0.4902
0.49412
0.49412
0.48431
0.47059
0.4451
0.42549
0.4098
0.39412
0.38039
0.37451
0.37059
0.36471
0.35882
0.35882
0.36471
0.37059
0.37059
0.37451
0.37451
0.37451
0.37451
0.37451
0.38039
0.38039
0.38039
0.38039
0.38431
0.38039
0.38039
0.37451
0.37451
0.37451
0.37451
0.37451
0.37451
0.37451
0.37451
0.37451
0.38039
0.38431
0.39412
0.40392
0.41569
0.41961
0.41961
0.41569
0.40392
0.39412
0.38039
0.38039
0.38039
0.38039
0.38039
0.37451
0.35882
0.33922
0.33529
0.47059
0.6902
0.81176
0.73529
0.58039
0.4549
0.40392
0.38431
0.38039
0.37451
0.37059
0.37451
0.38039
0.38431
0.38431
0.38431
0.3902
0.39412
0.39412
0.40392
0.41961
0.42941
0.43922
0.44902
0.46471
0.47451
0.48431
0.4902
0.49412
0.48431
0.47451
0.46078
0.43529
0.4098
0.3902
0.38039
0.37451
0.37059
0.36471
0.37059
0.37059
0.37059
0.37059
0.37059
0.37059
0.37059
0.37451
0.38039
0.38039
0.38039
0.38039
0.38039
0.38039
0.38039
0.38039
0.38039
0.38039
0.38039
0.38039
0.38039
0.37451
0.37451
0.37451
0.37451
0.38039
0.38039
0.3902
0.4
0.4098
0.41569
0.41569
0.41961
0.41569
0.40392
0.4
0.3902
0.38431
0.37451
0.37451
0.37451
0.37451
0.35882
0.33922
0.35882
0.48431
0.7098
0.83529
0.7451
0.58039
0.46078
0.4098
0.39412
0.38431
0.38039
0.37451
0.37059
0.37059
0.37451
0.38039
0.38431
0.38431
0.39412
0.40392
0.41569
0.41961
0.42549
0.43922
0.4549
0.47059
0.48431
0.49412
0.50588
0.5
0.4902
0.48039
0.4549
0.43529
0.4098
0.4
0.3902
0.38431
0.38039
0.37451
0.37059
0.37059
0.37059
0.37451
0.37451
0.38039
0.38039
0.38431
0.38431
0.38039
0.38431
0.38431
0.38431
0.3902
0.39412
0.39412
0.39412
0.3902
0.38431
0.38431
0.38039
0.38039
0.38431
0.38431
0.38431
0.38431
0.38431
0.38431
0.3902
0.39412
0.40392
0.41569
0.41961
0.41961
0.41569
0.40392
0.39412
0.38039
0.38039
0.37451
0.37451
0.38039
0.38039
0.36471
0.3451
0.33922
0.47059
0.69608
0.83137
0.76667
0.60588
0.4902
0.42941
0.4
0.38431
0.38039
0.37451
0.37451
0.37451
0.37451
0.37451
0.38039
0.38039
0.38431
0.38431
0.39412
0.40392
0.41569
0.42549
0.43529
0.4451
0.4549
0.46471
0.47059
0.48039
0.47059
0.46078
0.43529
0.4098
0.3902
0.37451
0.36471
0.3549
0.34902
0.34902
0.35882
0.35882
0.3549
0.3549
0.35882
0.36471
0.37059
0.37059
0.37059
0.37451
0.37451
0.37451
0.37451
0.37451
0.37451
0.37451
0.37451
0.37451
0.37451
0.37451
0.37451
0.37059
0.36471
0.35882
0.35882
0.36471
0.37059
0.38039
0.38431
0.3902
0.4
0.4
0.40392
0.4098
0.40392
0.39412
0.38431
0.38039
0.37451
0.37451
0.37059
0.37059
0.36471
0.34902
0.3451
0.42941
0.63529
0.8
0.81569
0.61569
0.47451
0.41569
0.39412
0.38431
0.38039
0.37451
0.37059
0.37059
0.37059
0.37451
0.37451
0.38039
0.38431
0.39412
0.39412
0.4
0.40392
0.41569
0.42549
0.43922
0.4549
0.46471
0.47059
0.48039
0.47451
0.46078
0.43922
0.41961
0.4
0.38431
0.37451
0.37059
0.36471
0.35882
0.3549
0.3549
0.35882
0.35882
0.36471
0.37451
0.38039
0.37451
0.37451
0.37451
0.37451
0.37059
0.37059
0.37059
0.37451
0.37451
0.37059
0.37059
0.37059
0.36471
0.36471
0.37059
0.37059
0.36471
0.36471
0.36471
0.36471
0.36471
0.37059
0.38039
0.39412
0.4
0.40392
0.4098
0.40392
0.38431
0.37451
0.37059
0.37059
0.37059
0.37451
0.38039
0.37451
0.34902
0.33922
0.43529
0.63529
0.8
0.81176
0.61569
0.48039
0.41961
0.4
0.38431
0.37451
0.37059
0.37059
0.37451
0.38039
0.38039
0.38431
0.3902
0.38431
0.3902
0.4
0.40392
0.41961
0.43529
0.4451
0.46078
0.46471
0.47451
0.48431
0.4902
0.48431
0.48039
0.46078
0.43922
0.41569
0.4
0.38431
0.37451
0.37059
0.37059
0.37059
0.37059
0.37451
0.37451
0.37451
0.37451
0.37451
0.37451
0.37451
0.38039
0.38039
0.38431
0.38039
0.38039
0.37451
0.37451
0.37451
0.37451
0.37451
0.37451
0.37451
0.37451
0.37059
0.36471
0.35882
0.35882
0.37451
0.38431
0.39412
0.4
0.4098
0.41569
0.41569
0.41569
0.40392
0.4
0.38431
0.38431
0.38431
0.38431
0.38431
0.38039
0.37451
0.3549
0.34902
0.43922
0.65098
0.82549
0.84118
0.64118
0.50588
0.43529
0.4
0.38431
0.38039
0.37451
0.37451
0.37451
0.38039
0.38039
0.38039
0.38431
0.39412
0.4
0.40392
0.41569
0.42549
0.43529
0.43922
0.4549
0.47059
0.48431
0.49412
0.50588
0.5
0.48431
0.46078
0.43922
0.41569
0.4
0.38431
0.38039
0.38039
0.37451
0.37059
0.37059
0.37059
0.37451
0.37059
0.37059
0.37059
0.37059
0.37451
0.38039
0.38039
0.37451
0.37451
0.37451
0.38039
0.37451
0.37451
0.37451
0.37059
0.37059
0.37059
0.37059
0.37059
0.37059
0.37451
0.38039
0.38039
0.38431
0.38431
0.4
0.40392
0.41569
0.41961
0.42549
0.42941
0.41961
0.4
0.3902
0.38039
0.37451
0.37451
0.37451
0.38039
0.37059
0.3451
0.35882
0.48039
0.69608
0.81176
0.72549
0.57059
0.46078
0.41569
0.39412
0.38039
0.37059
0.35882
0.35882
0.36471
0.37059
0.37451
0.38039
0.38039
0.38431
0.3902
0.4
0.40392
0.41961
0.43529
0.44902
0.46471
0.48039
0.4902
0.49412
0.49412
0.4902
0.47451
0.4549
0.43529
0.41569
0.39412
0.38039
0.37059
0.37059
0.36471
0.36471
0.36471
0.37059
0.37059
0.37451
0.37451
0.37451
0.37451
0.37451
0.37451
0.38039
0.38431
0.38431
0.38431
0.38431
0.38431
0.38039
0.37451
0.37451
0.37451
0.38039
0.38039
0.38039
0.37451
0.37451
0.37451
0.38039
0.38431
0.39412
0.4
0.41569
0.41961
0.41961
0.41569
0.4098
0.4
0.38431
0.38431
0.38431
0.38431
0.38431
0.38039
0.37059
0.34902
0.33922
0.42549
0.62549
0.8
0.81569
0.63529
0.4902
0.41961
0.4
0.39412
0.38431
0.38039
0.38039
0.38039
0.38039
0.38431
0.38431
0.38431
0.39412
0.4
0.41569
0.41961
0.43529
0.4451
0.4549
0.46471
0.48039
0.4902
0.49412
0.50588
0.49412
0.48431
0.46471
0.4451
0.41961
0.4
0.3902
0.38431
0.38039
0.38039
0.37451
0.37451
0.37059
0.37059
0.37059
0.37451
0.37451
0.38039
0.38431
0.38431
0.38431
0.38039
0.38039
0.38039
0.38039
0.38039
0.38431
0.38431
0.38039
0.38039
0.38039
0.37451
0.37451
0.37451
0.37451
0.38039
0.38431
0.3902
0.39412
0.4
0.40392
0.41569
0.41961
0.42549
0.41961
0.4098
0.4
0.3902
0.38431
0.38431
0.38431
0.38039
0.38039
0.37059
0.34902
0.38039
0.53529
0.7451
0.81569
0.7
0.5451
0.4549
0.41569
0.4
0.3902
0.38431
0.38039
0.37451
0.38039
0.38039
0.38431
0.3902
0.4
0.40392
0.4098
0.41569
0.41961
0.42941
0.4451
0.46078
0.47451
0.48431
0.4902
0.4902
0.48431
0.48039
0.46471
0.44902
0.42941
0.41569
0.4
0.3902
0.38431
0.37451
0.37059
0.37059
0.37451
0.38039
0.38039
0.38039
0.38039
0.38039
0.38039
0.38039
0.38431
0.3902
0.39412
0.39412
0.3902
0.38431
0.38431
0.38431
0.38431
0.38039
0.38039
0.38431
0.38431
0.38431
0.38039
0.38039
0.38039
0.38039
0.38431
0.39412
0.40392
0.41569
0.41961
0.41569
0.41569
0.4098
0.4
0.38431
0.37451
0.37451
0.37451
0.38039
0.37451
0.37059
0.34902
0.33922
0.38039
0.55098
0.76667
0.82549
0.7
0.5451
0.44902
0.4098
0.3902
0.38039
0.37451
0.37451
0.37451
0.37451
0.37451
0.37451
0.38039
0.38039
0.38039
0.39412
0.4
0.4098
0.41961
0.42941
0.43922
0.44902
0.46471
0.47451
0.48039
0.48431
0.48039
0.46078
0.43529
0.4098
0.38431
0.37451
0.36471
0.36471
0.36471
0.36471
0.37059
0.36471
0.36471
0.37059
0.37059
0.37059
0.37059
0.37451
0.38039
0.37451
0.37451
0.37451
0.37059
0.37451
0.37451
0.37451
0.37451
0.37451
0.37451
0.37059
0.36471
0.35882
0.36471
0.36471
0.36471
0.37059
0.37059
0.37451
0.38039
0.3902
0.4
0.40392
0.40392
0.40392
0.4098
0.39412
0.38039
0.37059
0.37059
0.36471
0.36471
0.36471
0.35882
0.3451
0.33529
0.40392
0.59608
0.78039
0.80588
0.63529
0.49412
0.41961
0.39412
0.38039
0.37059
0.35882
0.35882
0.37059
0.37059
0.37059
0.37451
0.38039
0.38431
0.38431
0.3902
0.39412
0.40392
0.41569
