0.27399
0.26006
0.4644
0.26471
0.28019
0.35449
0.23994
0.26006
0.12384
0.17492
0.2291
0.17957
0.24458
0.15944
0.13932
0.2291
0.10372
0.25387
0.35449
0.32972
0.43034
0.4644
0.54025
0.62074
0.44427
0.43498
0.54489
0.68111
0.55573
0.49071
0.5
0.49071
0.64087
0.66563
0.56966
0.60062
0.49071
0.54489
0.60062
0.5356
0.45975
0.54025
0.45975
0.5
0.54025
0.49071
0.47059
0.52941
0.56966
0.50929
0.59598
0.6548
0.56966
0.54954
0.52477
0.66563
0.56502
0.61455
0.54489
0.5
0.56502
0.52941
0.59598
0.43498
0.36997
0.45975
0.32508
0.56502
0.48452
0.41486
0.63003
0.43034
0.42415
0.52477
0.4644
0.43963
0.56037
0.45975
0.45511
0.5805
0.47988
0.52477
0.43498
0.61455
0.60991
0.78019
0.97678
0.68576
0.52012
0.33437
0.49536
0.63003
0.60991
0.66099
0.75542
0.81579
0.56966
0.5356
0.60526
0.40402
0.3452
0.41486
0.32508
0.34985
0.42415
0.32508
0.3096
0.45046
0.35449
0.25387
0.22446
0.26006
0.26471
0.27399
0.19505
0.26935
0.14396
0.30031
0.05418
0.018576
0.078947
0.32508
0.18421
0.12848
0.23375
0.33901
0.47523
0.33901
0.31889
0.60062
0.47988
0.55573
0.4644
0.45975
0.63003
0.55573
0.50929
0.63003
0.52477
0.48452
0.63467
0.56502
0.71053
0.38545
0.5
0.41022
0.52477
0.59598
0.54489
0.51548
0.64087
0.52477
0.58514
0.51548
0.71053
0.29412
0.47523
0.54025
0.60991
0.56502
0.64087
0.73065
0.61455
0.56037
0.57585
0.5356
0.54025
0.40402
0.50464
0.58514
0.40402
0.54025
0.40402
0.39474
0.52012
0.4195
0.5
0.37461
0.4644
0.51548
0.47059
0.45511
0.50929
0.47523
0.56966
0.45046
0.55573
0.50464
0.39938
0.5
0.65015
0.84056
0.71981
0.87616
0.6548
0.31889
0.30031
0.42415
0.62539
0.60991
0.65015
0.54025
0.58514
0.66099
0.50929
0.5
0.39938
0.35913
0.43963
0.52477
0.28483
0.26935
0.33437
0.43034
0.28483
0.26935
0.39009
0.39474
0.31424
0.17492
0.13467
0.28019
0.1548
0.13932
0.20433
0.23994
0.094427
0.20898
0.28483
0.1548
0.13932
0.25387
0.20898
0.42415
0.43498
0.41486
0.50929
0.49071
0.52477
0.63467
0.70588
0.5
0.5805
0.52941
0.67492
0.45975
0.55573
0.65015
0.5805
0.52477
0.58514
0.54954
0.54025
0.4644
0.51548
0.63467
0.48452
0.52941
0.52012
0.60991
0.50464
0.52477
0.45046
0.56037
0.52477
0.56966
0.6904
0.60062
0.55573
0.67028
0.56502
0.39474
0.4195
0.4644
0.54489
0.41486
0.41022
0.52941
0.45975
0.54025
0.41486
0.43963
0.40402
0.39938
0.48452
0.52941
0.49071
0.5805
0.41486
0.52012
0.51548
0.58978
0.49536
0.43034
0.5356
0.47059
0.63003
0.87152
0.97059
0.7709
0.60062
0.32508
0.45046
0.47059
0.4644
0.58514
0.52941
0.67492
0.71517
0.5356
0.49071
0.56966
0.29412
0.27399
0.41022
0.31889
0.40402
0.35913
0.33901
0.38545
0.39474
0.32508
0.24923
0.2291
0.34985
0.26935
0.23375
0.19969
0.18421
0.24458
0.20433
0.094427
0.034056
0.17492
0.20433
0.13932
0.28019
0.33901
0.31424
0.38545
0.54025
0.51548
0.49071
0.5805
0.67492
0.56966
0.54954
0.54489
0.63467
0.65015
0.5
0.49536
0.62539
0.56502
0.67028
0.56966
0.56502
0.64551
0.54954
0.47988
0.56966
0.47523
0.47523
0.45975
0.60991
0.48452
0.43034
0.55573
0.52477
0.51548
0.59598
0.61455
0.5805
0.73994
0.64087
0.47988
0.5356
0.49071
0.39009
0.47523
0.5356
0.47988
0.43963
0.4644
0.43498
0.45046
0.43498
0.56502
0.43498
0.39474
0.45046
0.54025
0.4195
0.45975
0.51548
0.50929
0.45511
0.50464
0.55573
0.5356
0.62074
0.49536
0.52941
0.76006
0.99536
0.80031
0.58514
0.41486
0.5805
0.52941
0.60526
0.65015
0.60526
0.6904
0.60526
0.54025
0.39938
0.47523
0.42415
0.45046
0.45975
0.41486
0.36997
0.18885
0.17957
0.32508
0.31424
0.35913
0.32508
0.34985
0.42415
0.24458
0.18421
0.13467
0.19969
0.18421
0.12384
0.15944
0.24458
0.16409
0.12384
0.25387
0.24458
0.30495
0.35449
0.43034
0.37926
0.47523
0.56037
0.51548
0.64087
0.50929
0.58978
0.5356
0.55573
0.61455
0.5805
0.52477
0.61455
0.65015
0.45511
0.5805
0.49071
0.47988
0.52477
0.54025
0.5
0.57585
0.54025
0.52941
0.44427
0.52941
0.45975
0.47523
0.43498
0.58514
0.54489
0.6548
0.67492
0.56037
0.52012
0.62539
0.43498
0.47523
0.64087
0.51548
0.39938
0.3452
0.47059
0.40402
0.37461
0.56037
0.44427
0.45046
0.50929
0.51548
0.45975
0.43963
0.52477
0.54025
0.42415
0.47988
0.4644
0.60526
0.43034
0.49536
0.54954
0.49536
0.60062
0.83591
1.0015
0.81115
0.39938
0.33437
0.41486
0.54489
0.62539
0.70588
0.71053
0.6548
0.63467
0.50464
0.44427
0.5
0.3096
0.37926
0.37461
0.39938
0.42415
0.29412
0.3096
0.35913
0.34985
0.41486
0.25387
0.22446
0.32508
0.20898
0.28019
0.23375
0.13467
0.069659
0.16409
0.20433
0.23375
0.3096
0.0387
0.1548
0.3452
0.28947
0.37461
0.45511
0.51548
0.54489
0.60526
0.52941
0.57585
0.65015
0.42415
0.35913
0.54954
0.60991
0.56966
0.5356
0.64087
0.54025
0.57585
0.50929
0.56502
0.47523
0.52012
0.44427
0.52012
0.56037
0.48452
0.54489
0.50464
0.47059
0.56966
0.49071
0.45511
0.55573
0.56966
0.56502
0.63003
0.60991
0.67492
0.47988
0.56966
0.61455
0.49071
0.43034
0.44427
0.49071
0.50464
0.42415
0.51548
0.39009
0.52477
0.54025
0.41022
0.48452
0.44427
0.47523
0.54489
0.61455
0.50929
0.35913
0.34985
0.40402
0.56502
0.57585
0.50929
0.50464
0.68111
0.97059
1.0418
0.63467
0.39009
0.33901
0.47059
0.60062
0.71053
0.62539
0.76006
0.69505
0.60526
0.54954
0.43034
0.37926
0.39938
0.31424
0.38545
0.32508
0.3096
0.41486
0.33901
0.38545
0.35449
0.4195
0.16409
0.30495
0.21362
0.20898
0.26935
0.24458
0.32508
0.089783
0.16873
0.0387
0.13467
0.17957
0.33437
0.23994
0.20898
0.26935
0.39938
0.42415
0.39009
0.56502
0.51548
0.66563
0.69505
0.54025
0.66563
0.45975
0.41486
0.5356
0.67492
0.54025
0.44427
0.60991
0.55573
0.62539
0.45975
0.45046
0.52012
0.60062
0.50464
0.54489
0.48452
0.51548
0.44427
0.47523
0.4644
0.56502
0.50929
0.50464
0.63467
0.67492
0.78638
0.5805
0.4644
0.54489
0.52477
0.43963
0.43498
0.58514
0.58978
0.45975
0.52477
0.36533
0.45511
0.39474
0.36533
0.49536
0.43963
0.50464
0.62539
0.41022
0.37461
0.44427
0.47988
0.49071
0.41486
0.54025
0.58514
0.54025
0.47059
0.4644
0.87152
0.98142
0.75077
0.55573
0.41486
0.30031
0.43963
0.56502
0.60991
0.80495
0.67028
0.5805
0.62539
0.47988
0.39009
0.4644
0.36533
0.3452
0.39474
0.37926
0.32972
0.36533
0.33437
0.39474
0.32508
0.23994
0.36533
0.30031
0.19969
0.30031
0.24923
0.12848
0.17492
0.1192
0.16873
0.17957
0.13467
0.074303
0.23994
0.20433
0.3452
0.27399
0.26471
0.42415
0.47523
0.36997
0.52941
0.47988
0.47059
0.61455
0.65015
0.59598
0.71981
0.5356
0.54489
0.45511
0.52477
0.56037
0.60526
0.52477
0.5
0.5805
0.62074
0.63003
0.57585
0.5356
0.57585
0.43963
0.41022
0.48452
0.52941
0.4644
0.5356
0.63003
0.5805
0.66099
0.63467
0.5356
0.55573
0.47523
0.5356
0.45511
0.60991
0.41022
0.47059
0.40402
0.43498
0.49071
0.4195
0.41486
0.50929
0.51548
0.43963
0.52012
0.54489
0.4195
0.37926
0.49536
0.39938
0.54954
0.47059
0.48452
0.51548
0.57585
0.45975
0.48452
0.73529
0.95666
0.95666
0.67492
0.29412
0.28483
0.4195
0.45046
0.54954
0.69969
0.72601
0.65015
0.64551
0.54489
0.36997
0.34985
0.39474
0.36533
0.39474
0.32972
0.31424
0.39474
0.39938
0.3452
0.44427
0.45511
0.21981
0.21362
0.18421
0.23375
0.24923
0.2291
0.20898
0.029412
0.15944
0.16409
0.0387
0.17957
0.16873
0.13467
0.26006
0.31424
0.40402
0.39474
0.62539
0.45511
0.52477
0.50929
0.54489
0.65015
0.73529
0.5805
0.49071
0.54489
0.67028
0.52012
0.50464
0.56966
0.52012
0.60526
0.65015
0.5
0.49536
0.57585
0.63467
0.5805
0.4195
0.49536
0.43034
0.51548
0.58978
0.54025
0.48452
0.60526
0.58514
0.66099
0.57585
0.62074
0.54025
0.52477
0.59598
0.43963
0.45046
0.47523
0.45046
0.43963
0.40402
0.5356
0.45975
0.52477
0.39009
0.43498
0.45511
0.55573
0.5805
0.39474
0.47523
0.57585
0.52941
0.45046
0.51548
0.56037
0.45975
0.41486
0.49536
0.47988
0.75542
0.99071
1.1316
0.63467
0.32972
0.30495
0.51548
0.60062
0.6548
0.63467
0.71053
0.71981
0.62539
0.56966
0.5356
0.36997
0.30495
0.3452
0.39009
0.35913
0.35449
0.37461
0.39474
0.36533
0.38545
0.31889
0.31424
0.39938
0.29412
0.18885
0.14396
0.13467
0.18421
0.21981
0.12848
0.15944
0.13932
0.21362
0.16409
0.25387
0.33437
0.30031
0.29412
0.49071
0.47059
0.57585
0.50464
0.5
0.5805
0.56966
0.63003
0.54025
0.52941
0.55573
0.5356
0.56966
0.63467
0.52477
0.47523
0.51548
0.50464
0.60991
0.52941
0.56502
0.45511
0.48452
0.52012
0.5805
0.54954
0.47059
0.51548
0.49071
0.55573
0.50929
0.6548
0.51548
0.54954
0.63003
0.64087
0.56502
0.58514
0.47059
0.50929
0.51548
0.40402
0.49071
0.45511
0.39009
0.43498
0.48452
0.52012
0.4644
0.43034
0.47988
0.5356
0.56502
0.49071
0.40402
0.49536
0.40402
0.45975
0.52941
0.51548
0.49536
0.50929
0.66099
0.95046
0.97059
0.79102
0.54025
0.4644
0.35449
0.5
0.56037
0.67028
0.69505
0.74613
0.6548
0.5356
0.54489
0.41486
0.31424
0.35449
0.45511
0.32972
0.32508
0.37926
0.33901
0.43034
0.28947
0.26935
0.29412
0.28019
0.32508
0.18885
0.26935
0.28947
0.16873
0.13467
0.19505
0.10372
0.11455
0.2291
0.19969
0.33437
0.33901
0.23375
0.33437
0.47059
0.5356
0.38545
0.5356
0.52941
0.58978
0.54025
0.51548
0.58978
0.55573
0.54954
0.58978
0.5356
0.59598
0.48452
0.62539
0.67028
0.49536
0.56966
0.43498
0.52012
0.65015
0.42415
0.4195
0.49536
0.56966
0.47059
0.45046
0.5805
0.64551
0.52012
0.48452
0.62539
0.63003
0.56966
0.62074
0.54025
0.54954
0.52941
0.47523
0.52012
0.49071
0.4195
0.50464
0.4195
0.34985
0.45046
0.52012
0.41486
0.52012
0.45511
0.43498
0.54489
0.43963
0.39938
0.45511
0.52012
0.5805
0.56037
0.5805
0.52477
0.44427
0.58978
0.75542
0.94582
0.76006
0.56966
0.35913
0.45046
0.58514
0.61455
0.75077
0.78638
0.68111
0.69969
0.60062
0.50929
0.38545
0.35449
0.36533
0.33901
0.33437
0.36997
0.39474
0.30031
0.28019
0.37461
0.41022
0.29412
0.27399
0.30495
0.21362
0.26935
0.14861
0.18421
0.16409
0.11455
0.14396
0.18421
0.20898
0.14861
0.14396
0.27399
0.32972
0.27399
0.40402
0.47523
0.3452
0.42415
0.5805
0.60526
0.48452
0.45975
0.63467
0.54025
0.52477
0.52012
0.57585
0.62539
0.47059
0.56502
0.58978
0.67028
0.5
0.45975
0.54954
0.43034
0.49536
0.54025
0.52941
0.56966
0.49071
0.54954
0.44427
0.54489
0.56502
0.48452
0.60991
0.52941
0.58978
0.63467
0.67028
0.54954
0.52941
0.56966
0.52012
0.54954
0.40402
0.45046
0.3452
0.48452
0.49071
0.39009
0.5
0.45046
0.43963
0.47523
0.39938
0.54025
0.55573
0.42415
0.68111
0.36533
0.41486
0.47523
0.45511
0.51548
0.43034
0.50929
0.8452
0.90093
0.93034
0.63003
0.36533
0.38545
0.34985
0.54954
0.52941
0.62074
0.66099
0.52477
0.64087
0.51548
0.43963
0.43034
0.5356
0.3452
0.29412
0.33437
0.29412
0.35913
0.28947
0.41022
0.30495
0.27399
0.36533
0.38545
0.3096
0.099071
0.28019
0.10836
0.10372
0.17957
0.12384
0.15944
0.094427
0.18885
0.26006
0.32972
0.15944
0.32972
0.4644
0.33901
0.30495
0.47059
0.52012
0.59598
0.62539
0.60991
0.52012
0.5805
0.58978
0.5
0.52941
0.57585
0.65015
0.50929
0.56037
0.64551
0.52477
0.50464
0.60991
0.48452
0.42415
0.52477
0.51548
0.62074
0.54954
0.4644
0.48452
0.55573
0.6548
0.52477
0.56502
0.62074
0.54489
0.56037
0.49071
0.56502
0.5805
0.43963
0.41486
0.54489
0.39009
0.41022
0.4195
0.39938
0.48452
0.49071
0.45046
0.43963
0.5
0.58978
0.4644
0.38545
0.43034
0.51548
0.43963
0.39009
0.52941
0.5805
0.47988
0.45046
0.73065
0.94118
0.85604
0.71517
0.5
0.32972
0.3096
0.52477
0.58978
0.71053
0.60526
0.56502
0.54954
0.66099
0.49536
0.37926
0.39474
0.43034
0.43498
0.32972
0.37926
0.31424
0.35913
0.37461
0.31889
0.41022
0.27399
0.28019
0.25387
0.21362
0.24923
0.20433
0.23994
0.28483
0.089783
0.12848
0.20433
0.094427
0.074303
0.2291
0.26006
0.31424
0.47059
0.47988
0.35449
0.4195
0.60526
0.63467
0.67492
0.49071
0.6548
0.58514
0.5805
0.70588
0.60526
0.5
0.56037
0.5356
0.51548
0.60526
0.63467
0.54025
0.60526
0.52941
0.52477
0.60062
0.60991
0.52012
0.4195
0.47988
0.54025
0.61455
0.47059
0.45975
0.6548
0.67028
0.55573
0.64087
0.49536
0.5
0.50464
0.45975
0.47523
0.50464
0.47988
0.56966
0.40402
0.35449
0.49071
0.41486
0.47523
0.54489
0.44427
0.41486
0.60991
0.43963
0.41022
0.51548
0.45511
0.5356
0.45511
0.44427
0.48452
0.5805
0.49536
0.57585
0.88545
1.0356
0.78638
0.58514
0.32972
0.47059
0.56037
0.54489
0.67028
0.72601
0.63467
0.65015
0.5805
0.56966
0.4644
0.44427
0.30031
0.32972
0.35449
0.27399
0.41486
0.3096
0.34985
0.37461
0.36533
0.35449
0.35913
0.22446
0.19969
0.33437
0.10836
0.13932
0.089783
0.11455
0.21981
0.24923
0.14396
0.22446
0.18421
0.25387
0.32508
0.30031
0.41486
0.50929
0.47059
0.52012
0.62539
0.5356
0.58514
0.55573
0.54954
0.52012
0.49536
0.54489
0.52941
0.57585
0.60062
0.69969
0.54489
0.49536
0.45975
0.43963
0.56502
0.54489
0.45046
0.4644
0.54025
0.60062
0.58514
0.45511
0.47059
0.43498
0.52012
0.66563
0.6548
0.61455
0.68576
0.49071
0.4644
0.58514
0.43034
0.45046
0.50464
0.47988
0.56502
0.5
0.52477
0.36997
0.4644
0.40402
0.45975
0.4195
0.45975
0.5356
0.56502
0.47059
0.4644
0.49071
0.45046
0.51548
0.50464
0.52477
0.49071
0.60991
0.4644
0.71517
0.94118
0.94582
0.6904
0.36997
0.33901
0.45975
0.5805
0.73529
0.67028
0.71517
0.68111
0.5805
0.43034
0.39474
0.4195
0.4644
0.47059
0.34985
0.39474
0.32508
0.21362
0.31424
0.44427
0.31889
0.27399
0.32508
0.30031
0.20898
0.28483
0.11455
0.10836
0.17492
0.15944
0.17957
0.16873
0.25387
0.12384
0.26471
0.3452
0.16873
0.26006
0.36533
0.47059
0.50929
0.52941
0.45975
0.52941
0.51548
0.68111
0.50929
0.4644
0.45975
0.54025
0.5805
0.50929
0.61455
0.52477
0.49071
0.54025
0.56502
0.50464
0.45975
0.52012
0.56502
0.50464
0.47523
0.48452
0.4644
0.54025
0.45046
0.43034
0.5
0.54489
0.61455
0.63003
0.66563
0.65015
0.54954
0.47059
0.45046
0.48452
0.51548
0.57585
0.43034
0.39474
0.39009
0.5356
0.47523
0.33901
0.44427
0.49071
0.50464
0.45975
0.44427
0.45975
0.5
0.56966
0.42415
0.35449
0.43963
0.50929
0.61455
0.48452
0.50464
0.66099
0.83591
0.89164
0.76006
0.45046
0.3452
0.56502
0.59598
0.56037
0.66099
0.79102
0.71517
0.56966
0.52012
0.44427
0.40402
0.54954
0.3452
0.28483
0.33437
0.31424
0.36997
0.39009
0.26935
0.25387
0.30031
0.32972
0.26471
0.22446
0.24923
0.30495
0.12848
0.16873
0.12848
0.089783
0.094427
0.13932
0.074303
0.063467
0.26006
0.30031
0.31889
0.31424
0.43034
0.47059
0.45511
0.52477
0.47059
0.52477
0.55573
0.49071
0.61455
0.63003
0.52012
0.58978
0.52012
0.50464
0.56966
0.5
0.50929
0.58514
0.65015
0.45975
0.52477
0.57585
0.54489
0.45046
0.54025
0.54489
0.42415
0.54954
0.58514
0.45511
0.50929
0.56966
0.60991
0.58514
0.69505
0.58514
0.54489
0.55573
0.45511
0.44427
0.47988
0.4644
0.47059
0.44427
0.43034
0.56037
0.59598
0.43034
0.40402
0.43034
0.36997
0.52477
0.55573
0.43963
0.52941
0.45511
0.52012
0.54489
0.39009
0.6548
0.39009
0.43963
0.47059
0.60526
0.83127
0.90557
0.82043
0.50464
0.26935
0.38545
0.5356
0.60526
0.63003
0.56502
0.69969
0.67492
0.52477
0.49536
0.52012
0.43963
0.32508
0.36533
0.39938
0.48452
0.24458
0.26471
0.25387
0.33437
0.23994
0.28947
0.33437
0.34985
0.24923
0.27399
0.25387
0.33437
0.078947
0.099071
0.19505
0.13467
0.12848
0.16409
0.18421
0.25387
0.3452
0.45046
0.35449
0.39009
0.48452
0.4644
0.50929
0.54489
0.63003
0.49071
0.56502
0.63467
0.64087
0.50929
0.64087
0.56037
0.61455
0.58978
0.62539
0.42415
0.4644
0.50929
0.61455
0.63003
0.52477
0.60062
0.5
0.50929
0.56966
0.63003
0.5
0.4644
0.55573
0.52012
0.50464
0.58514
0.60062
0.57585
0.64087
0.52941
0.45975
0.5356
0.41022
0.36997
0.41022
0.47523
0.49071
0.4644
0.45046
0.45975
0.43498
0.52477
0.45975
0.50464
0.36997
0.47988
0.52012
0.52941
0.44427
0.4644
0.56037
0.5356
0.5
0.48452
0.6548
0.68576
0.86533
0.94118
0.66563
0.35449
0.29412
0.48452
0.52477
0.67028
0.73529
0.65015
0.70588
0.60991
0.50464
0.36997
0.41486
0.33901
0.39009
0.39938
0.31424
0.35913
0.30031
0.40402
0.41486
0.36533
0.21981
0.30031
0.33437
0.26935
0.25387
0.24923
0.21362
0.16409
0.18421
0.14396
0.074303
0.14396
0.10836
0.21981
0.26935
0.31424
0.3452
0.38545
0.45975
0.58978
0.50464
0.45511
0.45975
0.62539
0.63003
0.57585
0.60062
0.52941
0.60991
0.56966
0.52477
0.61455
0.52941
0.62539
0.64551
0.52012
0.56966
0.49536
0.50929
0.52477
0.52941
0.50464
0.51548
0.45975
0.52012
0.60062
0.60991
0.51548
0.48452
0.52012
0.59598
0.63003
0.6904
0.52012
0.57585
0.47523
0.45511
0.50464
0.5805
0.47523
0.44427
0.48452
0.41022
0.47523
0.4195
0.45975
0.50464
0.49536
0.47059
0.4644
0.5356
0.49071
0.52012
0.54489
0.37461
0.43963
0.5356
0.5805
0.49071
0.43034
0.50929
0.78638
0.9613
1.0062
0.73994
0.44427
0.35913
0.49071
0.47523
0.56502
0.67492
0.75077
0.69969
0.58514
0.49536
0.51548
0.38545
0.39474
0.36997
0.33901
0.39474
0.33901
0.38545
0.33901
0.31889
0.33901
0.28947
0.33901
0.30031
0.28019
0.28947
0.21981
0.23375
0.13932
0.18421
0.1548
0.14861
0.078947
0.14861
0.22446
0.28947
0.25387
0.31424
0.39474
0.45975
0.43034
0.54489
0.61455
0.5356
0.52941
0.50464
0.54954
0.52477
0.54954
0.54025
0.61455
0.63467
0.54489
0.51548
0.63003
0.47523
0.42415
0.50464
0.47059
0.50464
0.56966
0.54025
0.54489
0.50929
0.47523
0.54025
0.5
0.41486
0.50929
0.55573
0.49536
0.60991
0.68576
0.5356
0.52941
0.60991
0.50929
0.47523
0.5805
0.45975
0.48452
0.43963
0.43034
0.40402
0.47988
0.40402
0.52941
0.45046
0.43498
0.4644
0.45046
0.54954
0.47988
0.49071
0.4644
0.5
0.43963
0.50929
0.5356
0.45046
0.52012
0.49071
0.62539
0.9257
0.98142
0.8452
0.52477
0.42415
0.36533
0.45511
0.54954
0.63467
0.71053
0.68576
0.60526
0.52941
0.5
0.51548
0.35449
0.32972
0.45511
0.47988
0.26006
0.28019
0.33437
0.30031
0.39009
0.30495
0.24923
0.26935
0.28483
0.2291
0.17957
0.20898
0.23994
0.16409
0.26471
0.099071
0.029412
0.13932
0.31424
0.20898
0.18885
0.4195
0.37461
0.33901
0.41486
0.47523
0.52477
0.61455
0.55573
0.52941
0.60062
0.65015
0.61455
0.5
0.4644
0.52477
0.54489
0.50464
0.58978
0.62539
0.51548
0.52477
0.4644
0.50929
0.5356
0.49071
0.50464
0.58978
0.47059
0.45511
0.5
0.5356
0.45046
0.58514
0.56966
0.60526
0.56037
0.58978
0.60991
0.56966
0.67028
0.45975
0.33901
0.45511
0.52941
0.57585
0.47988
0.49071
0.39938
0.48452
0.41022
0.47059
0.50929
0.47988
0.52941
0.40402
0.36533
0.43963
0.43498
0.54954
0.43498
0.55573
0.58514
0.50929
0.49071
0.54025
0.67492
0.80031
0.90557
0.76625
0.41486
0.34985
0.39938
0.55573
0.60062
0.67028
0.72601
0.61455
0.56966
0.5805
0.48452
0.44427
0.35913
0.36533
0.29412
0.26006
0.34985
0.39009
0.30495
0.28019
0.32972
0.33437
0.28483
0.35449
0.28483
0.22446
0.26006
0.14396
0.24923
0.26471
0.078947
0.1548
0.20898
0.074303
0.063467
0.21981
0.26935
0.28483
0.45511
0.32972
0.32508
0.39009
0.49536
0.54489
0.55573
0.51548
0.56037
0.67028
0.56966
0.47988
0.5356
0.56037
0.57585
0.58978
0.50929
0.55573
0.58514
0.50929
0.5
0.5356
0.56966
0.56037
0.5805
0.44427
0.49536
0.47523
0.52941
0.55573
0.45511
0.4644
0.54954
0.62074
0.65015
0.60526
0.60991
0.50929
0.56502
0.5805
0.48452
0.49071
0.44427
0.48452
0.51548
0.47988
0.35913
0.33437
0.43963
0.43034
0.52012
0.44427
0.40402
0.45046
0.50464
0.59598
0.41022
0.37926
0.50464
0.52941
0.43963
0.52941
0.43034
0.52941
0.56037
0.72601
0.91641
0.81115
0.59598
0.34985
0.30031
0.52012
0.48452
0.5356
0.56037
0.63467
0.62539
0.57585
0.60062
0.48452
0.35913
0.38545
0.40402
0.35913
0.36997
0.27399
0.41022
0.27399
0.35913
0.33437
0.32508
0.31424
0.3096
0.32972
0.19505
0.17492
0.21362
0.22446
0.17492
0.063467
0.1192
0.16409
0.063467
0.22446
0.28483
0.078947
0.24923
0.3096
0.30495
0.42415
0.43498
0.60526
0.66099
0.49536
0.5356
0.51548
0.58978
0.62539
0.54489
0.52477
0.64087
0.51548
0.47988
0.52012
0.57585
0.63467
0.65015
0.56502
0.63003
0.47523
0.54954
0.55573
0.43034
0.40402
0.56966
0.51548
0.63003
0.60062
0.5805
0.67492
0.59598
0.67492
0.4644
0.56037
0.51548
0.60526
0.5
0.54025
0.5
0.47059
0.47523
0.39474
0.60526
0.39474
0.34985
0.45511
0.5
0.54954
0.54025
0.49536
0.42415
0.48452
0.56037
0.5
0.55573
0.43963
0.60991
0.78638
0.34985
0.54489
0.61455
0.60991
1.0263
0.8808
0.68111
0.47523
0.41022
0.51548
0.60062
0.68576
0.73065
0.65015
0.62539
0.66563
0.44427
0.47988
0.44427
0.33901
0.43034
0.39474
0.35913
0.41022
0.3452
0.3096
0.4195
0.35449
0.28019
0.30495
0.33437
0.36533
0.36997
0.094427
0.21981
0.24923
0.069659
0.17492
0.24458
0.10836
0.14396
0.26935
0.28019
0.26935
0.35449
0.43034
0.45511
0.5805
0.60526
0.5
0.55573
0.52941
0.62539
0.52012
0.56966
0.62074
0.56502
0.58978
0.51548
0.5805
0.62539
0.54025
0.60526
0.41486
0.54489
0.47988
0.47059
0.58514
0.52012
0.52941
0.48452
0.62539
0.57585
0.43498
0.59598
0.49071
0.50464
0.56037
0.60526
0.6548
0.60526
0.56966
0.67028
0.43963
0.57585
0.62074
0.39009
0.35913
0.4644
0.43498
0.43963
0.52012
0.5356
0.52012
0.48452
0.55573
0.57585
0.49536
0.45046
0.50464
0.44427
0.49071
0.52477
0.47988
0.45046
0.49071
0.54025
0.57585
0.52477
0.85139
1.0759
0.8452
0.56502
0.32508
0.3096
0.52012
0.47523
0.66563
0.64087
0.73065
0.62539
0.56966
0.54025
0.47988
0.41486
0.31424
0.40402
0.39938
0.41486
0.30031
0.29412
0.37926
0.3452
0.26471
0.28019
0.39474
0.42415
0.2291
0.13467
0.20433
0.13932
0.17492
0.18421
0.17957
0.23994
0.063467
0.05418
0.21362
0.23994
0.35913
0.45046
0.48452
0.43963
0.4195
0.58978
0.63467
0.44427
0.56966
0.49071
0.54954
0.5805
0.56037
0.67028
0.5356
0.63003
0.4644
0.52941
0.51548
0.52941
0.59598
0.5356
0.5805
0.47523
0.43498
0.57585
0.5
0.43498
0.5
0.56966
0.49536
0.47523
0.51548
0.54954
0.60062
0.63467
0.60062
0.74613
0.50929
0.52941
0.50929
0.55573
0.60062
0.42415
0.52941
0.5356
0.37461
0.41022
0.50929
0.4644
0.43034
0.47988
0.43963
0.52941
0.56502
0.41022
0.47988
0.5356
0.47988
0.42415
0.47988
0.5356
0.5805
0.48452
0.50464
0.52941
0.69505
0.93034
0.99071
0.69969
0.32972
0.27399
0.48452
0.62074
0.66563
0.66099
0.69505
0.75542
0.56966
0.49536
0.4644
0.47059
0.35913
0.33437
0.43034
0.31424
0.30031
0.41486
0.3096
0.32972
0.30031
0.39938
0.18885
0.2291
0.31424
0.31889
0.26471
0.19969
0.23375
0.24458
0.12384
0.13467
0.10836
0.14396
0.23994
0.26471
0.30495
0.36533
0.43034
0.41022
0.51548
0.48452
0.47988
0.54954
0.60991
0.49071
0.55573
0.64551
0.56966
0.5805
0.54954
0.52477
0.58514
0.52477
0.56037
0.52477
0.5
0.50464
0.63467
0.50929
0.48452
0.47059
0.55573
0.58978
0.43034
0.39938
0.47523
0.56037
0.59598
0.52012
0.56037
0.5356
0.62074
0.6548
0.63467
0.60991
0.58514
0.62074
0.44427
0.51548
0.4644
0.63467
0.33901
0.3096
0.39009
0.43963
0.4644
0.47523
0.52012
0.54025
0.48452
0.50929
0.4644
0.3452
0.41022
0.45511
0.5
0.49071
0.54025
0.50464
0.4644
0.5805
0.47523
0.6548
0.90093
0.92105
0.73994
0.37926
0.27399
0.44427
0.52012
0.6904
0.58514
0.69505
0.58978
0.71517
0.47523
0.48452
0.33437
0.3096
0.40402
0.36533
0.45511
0.36997
0.42415
0.36997
0.33437
0.2291
0.28483
0.33437
0.35449
0.29412
0.20898
0.23994
0.30495
0.24923
0.28483
0.074303
0.094427
0.18421
0.19969
0.16873
0.24923
0.21981
0.32972
0.49071
0.32508
0.36997
0.37926
0.47059
0.51548
0.66099
0.66563
0.52941
0.60991
0.52477
0.51548
0.58978
0.56037
0.6548
0.47523
0.60062
0.47988
0.54954
0.62539
0.50464
0.52012
0.5
0.5805
0.5
0.56037
0.54954
0.56966
0.52941
0.45975
0.38545
0.50464
0.59598
0.72601
0.63003
0.65015
0.59598
0.4644
0.43034
0.49071
0.62074
0.47988
0.44427
0.47523
0.49071
0.43963
0.54489
0.47988
0.36997
0.42415
0.49536
0.58978
0.5805
0.39009
0.38545
0.4644
0.56966
0.41486
0.41022
0.56502
0.5356
0.56966
0.60991
0.45975
0.59598
0.89628
1.0062
0.76006
0.45046
0.30031
0.52941
0.54954
0.47059
0.50464
0.56966
0.61455
0.64551
0.58514
0.54025
0.42415
0.39938
0.43498
0.32972
0.50929
0.28947
0.27399
0.3452
0.39009
0.54025
0.20898
0.18885
0.28483
0.28019
0.35449
0.20433
0.1548
0.29412
0.18421
0.37461
0.013932
0.1192
0.089783
0.15944
0.23994
0.29412
0.33437
0.37926
0.47523
0.35449
0.45511
0.56502
0.60526
0.63467
0.50929
0.49071
0.58514
0.63467
0.5805
0.62539
0.54954
0.64087
0.58514
0.63467
0.47988
0.47059
0.54025
0.60062
0.61455
0.55573
0.67028
0.45511
0.45046
0.50464
0.54025
0.47988
0.52012
0.57585
0.54954
0.60062
0.60991
0.54025
0.63467
0.54954
0.5
0.5356
0.51548
0.5805
0.58978
0.50929
0.48452
0.45975
0.39009
0.37926
0.52941
0.37461
0.4195
0.4644
0.5
0.45975
0.49071
0.44427
0.50464
0.45511
0.45046
0.5356
0.47988
0.45975
0.55573
0.49071
0.45975
0.49536
0.60062
0.80495
1.0015
0.80495
0.58514
0.39009
0.3452
0.45975
0.45046
0.63003
0.57585
0.66099
0.71517
0.54489
0.4195
0.43034
0.3096
0.29412
0.36533
0.35913
0.54025
0.28947
0.35449
0.31424
0.36997
0.27399
0.30495
0.26471
0.44427
0.18885
0.26006
0.16873
0.10372
0.21981
0.29412
0.069659
0.13932
0.20433
0.23375
0.18421
0.28947
0.41022
0.52941
0.30031
0.39474
0.45975
0.52941
0.58978
0.59598
0.50464
0.60991
0.64551
0.60991
0.68576
0.5
0.5356
0.60062
0.60526
0.50464
0.56037
0.51548
0.52941
0.49536
0.52941
0.50929
0.54489
0.60062
0.56966
0.47988
0.60991
0.69969
0.35913
0.41486
0.47523
0.5356
0.66099
0.54954
0.61455
0.61455
0.58514
0.61455
0.4644
0.43963
0.49071
0.52012
0.58514
0.61455
0.43034
0.47988
0.38545
0.5356
0.41486
0.36997
0.39938
0.39474
0.54489
0.4644
0.51548
0.5
0.56966
0.40402
0.35913
0.43963
0.41486
0.5356
0.54489
0.45511
0.57585
0.82508
0.97059
0.81579
0.63003
0.37926
0.30031
0.52477
0.48452
0.5805
0.64551
0.73994
0.58978
0.52941
0.45511
0.47523
0.40402
0.48452
0.28947
0.41022
0.33437
0.28483
0.32508
0.35913
0.37461
0.33901
0.29412
0.31889
0.39009
0.45046
0.058824
0.089783
0.24458
0.12384
0.14861
0.10372
0.17957
0.20433
0.16409
0.26471
0.23375
0.33437
0.41486
0.42415
0.32972
0.39938
0.51548
0.59598
0.48452
0.5356
0.63003
0.52012
0.50464
0.60062
0.57585
0.58978
0.43963
0.56502
0.57585
0.54025
0.56502
0.51548
0.56037
0.59598
0.45511
0.4644
0.54025
0.63003
0.47059
0.38545
0.4644
0.5356
0.54025
0.47988
0.50464
0.49071
0.62539
0.5805
0.62074
0.75077
0.49536
0.47523
0.54954
0.56502
0.45046
0.48452
0.50929
0.52477
0.43963
0.42415
0.47523
0.59598
0.43034
0.45975
0.36997
0.41022
0.52477
0.4644
0.45975
0.50464
0.5356
0.45046
0.48452
0.50929
0.48452
0.63467
0.49071
0.37926
0.73065
0.94582
1.0015
0.57585
0.33437
0.30031
0.52012
0.63003
0.61455
0.73994
0.75542
0.65015
0.51548
0.52012
0.43498
0.45511
0.34985
0.32972
0.37461
0.39009
0.35913
0.32508
0.37926
0.3452
0.28947
0.37461
0.43498
0.19505
0.28947
0.17492
0.24923
0.17492
0.17957
0.21981
0.15944
0.20898
0.26471
0.12848
0.0387
0.19969
0.17957
0.30495
0.35913
0.47523
0.45511
0.50929
0.52012
0.54025
0.58978
0.6904
0.51548
0.52012
0.48452
0.60062
0.47059
0.52477
0.51548
0.56037
0.66563
0.52477
0.47988
0.58514
0.59598
0.56037
0.39009
0.50929
0.54489
0.44427
0.45511
0.45046
0.59598
0.5356
0.58978
0.49536
0.55573
0.45046
0.58514
0.5805
0.66099
0.67028
0.54489
0.60526
0.62539
0.49536
0.41022
0.63467
0.35913
0.33437
0.47523
0.39474
0.45046
0.5356
0.52012
0.40402
0.47059
0.45046
0.45511
0.58978
0.60991
0.4644
0.43498
0.47523
0.52012
0.52477
0.44427
0.54025
0.47988
0.62539
0.91022
0.91641
0.67492
0.43498
0.28947
0.4195
0.5
0.54489
0.68111
0.56966
0.58978
0.56966
0.60526
0.61455
0.31424
0.33901
0.4195
0.36997
0.47059
0.48452
0.3096
0.4644
0.31889
0.23375
0.22446
0.39474
0.50464
0.20433
0.2291
0.26935
0.32972
0.083591
0.14861
0.13932
0.18885
0.22446
0.18421
0.18885
0.14861
0.39938
0.43498
0.20433
0.30031
0.47988
0.55573
0.47059
0.62074
0.5
0.52477
0.69505
0.76625
0.4644
0.54954
0.62074
0.57585
0.69505
0.64087
0.50929
0.49536
0.51548
0.63467
0.77554
0.47523
0.43498
0.56502
0.5356
0.54025
0.49536
0.52012
0.49071
0.62539
0.55573
0.54025
0.50929
0.5356
0.62074
0.58514
0.66563
0.77554
0.4195
0.4644
0.58514
0.43498
0.33437
0.44427
0.47523
0.54489
0.64087
0.30495
0.47988
0.44427
0.5356
0.43963
0.49536
0.41486
0.41022
0.56037
0.41022
0.37926
0.45511
0.54489
0.56966
0.55573
0.50464
0.43498
0.74613
0.92105
0.94118
0.63467
0.40402
0.3452
0.54489
0.54489
0.50929
0.5805
0.66563
0.76006
0.54954
0.5805
0.29412
0.34985
0.43963
0.52477
0.21981
0.43963
0.36997
0.33901
0.37461
0.38545
0.4195
0.28947
0.23994
0.31889
0.2291
0.2291
0.21981
0.13467
0.21981
0.23994
0.063467
0.11455
0.19505
0.30031
0.083591
0.17492
0.26471
0.25387
0.3096
0.43498
0.45511
0.55573
0.52477
0.63003
0.48452
0.52941
0.51548
0.5805
0.54489
0.57585
0.49536
0.63003
0.55573
0.64087
0.64551
0.49536
0.48452
0.5805
0.54489
0.45046
0.5
0.50464
0.54954
0.52941
0.54954
0.43498
0.47988
0.49536
0.47059
0.57585
0.52941
0.56966
0.52941
0.54954
0.48452
0.55573
0.56966
0.59598
0.5
0.41022
0.50464
0.69969
0.37926
0.26006
0.39009
0.44427
0.52012
0.4195
0.41022
0.48452
0.45975
0.54954
0.42415
0.45975
0.52477
0.64551
0.35913
0.34985
0.4195
0.47059
0.60526
0.45975
0.39009
0.5356
0.87616
1.0511
0.81115
0.56502
0.44427
0.41486
0.54489
0.6548
0.54489
0.5356
0.60526
0.61455
0.45511
0.5
0.54954
0.41022
0.40402
0.38545
0.50464
0.31889
0.22446
0.30031
0.32972
0.35449
0.33437
0.32508
0.35449
0.28483
0.21981
0.17957
0.20433
0.28947
0.23994
0.24458
-0.021672
0.13467
0.1548
0.12848
0.20433
0.19505
0.39938
0.35449
0.41486
0.41486
0.48452
0.50929
0.54489
0.5
0.51548
0.50929
0.62539
0.54489
0.62074
0.66563
0.51548
0.59598
0.52012
0.54954
0.43963
0.54025
0.47988
0.52477
0.50929
0.63003
0.54489
0.50929
0.54025
0.52012
0.47523
0.4644
0.52477
0.47523
0.56502
0.57585
0.5356
0.56037
0.67492
0.74613
0.56502
0.49536
0.5356
0.43498
0.45046
0.49536
0.51548
0.52012
0.56037
0.51548
0.43034
0.41022
0.48452
0.50929
0.49071
0.60062
0.30495
0.39009
0.45046
0.43034
0.49071
0.5356
0.51548
0.50929
0.5356
0.49536
0.45975
0.52477
0.40402
0.6904
0.91022
0.98142
0.67492
0.45046
0.30031
0.45511
0.56966
0.63003
0.65015
0.6904
0.66099
0.5805
0.52941
0.41486
0.37461
0.35449
0.44427
0.36997
0.43963
0.47988
0.32508
0.31889
0.39474
0.27399
0.31424
0.34985
0.28483
0.23375
0.25387
0.18421
0.21362
0.18885
0.24458
0.30495
0.063467
0.099071
0.13467
0.21981
0.26471
0.35449
0.39009
0.31424
0.47988
0.52941
0.44427
0.47523
0.56037
0.60991
0.52941
0.51548
0.58514
0.60526
0.55573
0.54489
0.60062
0.62074
0.54489
0.47059
0.49071
0.56966
0.49536
0.48452
0.49071
0.47059
0.49536
0.54489
0.60062
0.49071
0.45046
0.4644
0.45975
0.50464
0.5356
0.5
0.59598
0.64087
0.62074
0.66099
0.61455
0.60526
0.52941
0.54489
0.49071
0.45975
0.49536
0.47523
0.44427
0.41022
0.33901
0.40402
0.50929
0.49536
0.50929
0.45046
0.47988
0.43498
0.49536
0.52941
0.45975
0.44427
0.47523
0.49071
0.49071
0.5356
0.50929
0.55573
0.54954
0.75542
0.91641
0.78019
0.56037
0.32508
0.38545
0.5
0.58978
0.59598
0.62539
0.70588
0.71981
0.60062
0.52012
0.47523
0.36997
0.39474
0.40402
0.32508
0.3452
0.35913
0.28483
0.3452
0.29412
0.35913
0.37926
0.28019
0.31889
0.26935
0.21981
0.20433
0.2291
0.20898
0.16409
0.21981
0.12848
0.20433
0.13467
0.13467
0.18421
0.24923
0.35913
0.39938
0.43498
0.4644
0.48452
0.54025
0.56966
0.57585
0.54489
0.5356
0.52012
0.56037
0.59598
0.55573
