0.67578
0.66992
0.66016
0.6543
0.65039
0.64063
0.62891
0.61523
0.60547
0.58984
0.57031
0.55078
0.52539
0.5
0.47461
0.46094
0.44922
0.44922
0.44922
0.4707
0.49414
0.51953
0.55469
0.58984
0.62891
0.66992
0.69922
0.72461
0.74414
0.75977
0.76563
0.76953
0.77539
0.77539
0.76953
0.76563
0.75977
0.75391
0.75
0.74414
0.74414
0.74414
0.74414
0.75
0.75391
0.75391
0.75977
0.76563
0.76953
0.76953
0.77539
0.7793
0.7793
0.78516
0.7793
0.7793
0.7793
0.7793
0.78516
0.7793
0.7793
0.7793
0.77539
0.76953
0.76953
0.76953
0.75977
0.74414
0.7207
0.69922
0.68945
0.67969
0.67969
0.71484
0.75
0.75977
0.74414
0.74023
0.74023
0.75391
0.77539
0.78906
0.78906
0.78516
0.78516
0.78516
0.7793
0.7793
0.7793
0.77539
0.77539
0.76953
0.70508
0.50977
0.25977
0.19531
0.48047
0.92969
1.1992
1.2734
1.2402
1.1641
1.0996
1.0645
1.0254
0.93945
0.82422
0.73438
0.68945
0.67578
0.66992
0.66016
0.6543
0.65039
0.64453
0.63477
0.625
0.61523
0.59961
0.58398
0.56445
0.54492
0.51953
0.5
0.48047
0.46094
0.45508
0.46094
0.4707
0.49023
0.51563
0.53906
0.57422
0.61523
0.65039
0.68555
0.71484
0.73438
0.75391
0.76563
0.76953
0.77539
0.7793
0.77539
0.76953
0.76953
0.76563
0.75391
0.75391
0.75
0.75
0.75391
0.75391
0.75977
0.75977
0.75977
0.76563
0.76953
0.7793
0.7793
0.7793
0.78516
0.78516
0.78516
0.78516
0.78516
0.78516
0.78516
0.78516
0.78516
0.78516
0.78516
0.78516
0.78516
0.78516
0.77539
0.75391
0.72461
0.70508
0.69922
0.69531
0.70508
0.74023
0.76563
0.76953
0.75391
0.75
0.75391
0.77539
0.78906
0.79883
0.79492
0.79492
0.78906
0.78906
0.78906
0.78906
0.78516
0.78516
0.7793
0.76563
0.66016
0.41992
0.20117
0.17578
0.61914
1.0391
1.2344
1.2695
1.2188
1.1484
1.0938
1.0586
1.0039
0.91016
0.79492
0.7207
0.68945
0.67578
0.66406
0.66016
0.6543
0.65039
0.64063
0.62891
0.61523
0.60547
0.58398
0.56445
0.54492
0.52539
0.5
0.47461
0.45508
0.44531
0.43945
0.44531
0.45508
0.48047
0.50977
0.54492
0.58398
0.61914
0.66016
0.69531
0.72461
0.74414
0.75977
0.76953
0.77539
0.7793
0.7793
0.77539
0.76953
0.76563
0.76563
0.75977
0.75391
0.75391
0.75
0.75
0.75391
0.75391
0.75977
0.76563
0.76953
0.7793
0.7793
0.7793
0.78516
0.78516
0.78516
0.78516
0.78516
0.78906
0.78516
0.78516
0.78516
0.78516
0.7793
0.7793
0.7793
0.7793
0.7793
0.77539
0.75977
0.74023
0.71484
0.69922
0.68945
0.68945
0.70898
0.75
0.76563
0.75977
0.74414
0.74414
0.75391
0.77539
0.78906
0.79492
0.78906
0.78906
0.78906
0.78516
0.78516
0.7793
0.7793
0.77539
0.7793
0.73438
0.57031
0.31055
0.17578
0.38086
0.83008
1.1602
1.2637
1.25
1.1836
1.1152
1.0703
1.0391
0.97461
0.86523
0.75391
0.69922
0.67578
0.66016
0.65039
0.64453
0.64063
0.63477
0.625
0.61523
0.60547
0.58984
0.57422
0.55469
0.5293
0.50586
0.48047
0.45508
0.43945
0.43555
0.42969
0.43945
0.45508
0.48438
0.51953
0.55469
0.58984
0.63477
0.66992
0.70508
0.73047
0.75
0.76563
0.76953
0.77539
0.77539
0.7793
0.77539
0.76953
0.76563
0.75977
0.75391
0.75391
0.75391
0.75
0.75391
0.75391
0.75391
0.75977
0.76563
0.76953
0.7793
0.78516
0.78516
0.78516
0.78516
0.78906
0.78906
0.78906
0.78906
0.78906
0.78906
0.78906
0.78906
0.78906
0.78906
0.78906
0.78906
0.7793
0.76563
0.74023
0.7207
0.70898
0.69922
0.69531
0.73047
0.76563
0.7793
0.76563
0.75977
0.75977
0.76953
0.78516
0.79883
0.80469
0.79883
0.79883
0.79883
0.79492
0.78906
0.78906
0.78906
0.78906
0.78516
0.70898
0.5
0.25
0.17969
0.48047
0.93945
1.2188
1.2891
1.2598
1.1836
1.1191
1.0801
1.0352
0.94531
0.83008
0.74023
0.69922
0.68555
0.67578
0.66992
0.66016
0.6543
0.65039
0.64063
0.62891
0.61523
0.5957
0.58008
0.56055
0.53516
0.50586
0.48047
0.46094
0.44922
0.43945
0.43945
0.44922
0.4707
0.5
0.53516
0.57422
0.61523
0.6543
0.68945
0.72461
0.75
0.75977
0.76953
0.7793
0.7793
0.78516
0.78516
0.7793
0.77539
0.76953
0.76563
0.75977
0.75977
0.75977
0.75977
0.76563
0.76953
0.77539
0.7793
0.78516
0.78906
0.79492
0.79883
0.79883
0.79883
0.79883
0.79883
0.79883
0.79883
0.79883
0.79883
0.79883
0.79492
0.79492
0.79492
0.78906
0.78906
0.78516
0.7793
0.75977
0.73438
0.7207
0.71484
0.70508
0.7207
0.75977
0.7793
0.78516
0.76563
0.76563
0.76953
0.78516
0.79883
0.81055
0.80469
0.80469
0.79883
0.79883
0.79883
0.79883
0.79492
0.78906
0.78906
0.76953
0.65039
0.40039
0.18945
0.17578
0.66016
1.0703
1.25
1.2793
1.2188
1.1484
1.0996
1.0645
1.0098
0.9043
0.79492
0.72461
0.69531
0.67969
0.67578
0.66406
0.66016
0.6543
0.64453
0.63477
0.625
0.60938
0.58984
0.57031
0.54492
0.51953
0.49414
0.47461
0.44922
0.43945
0.43555
0.43945
0.45508
0.48047
0.50977
0.54492
0.58398
0.62891
0.66406
0.69922
0.72461
0.75
0.76563
0.76953
0.77539
0.7793
0.7793
0.7793
0.76953
0.76563
0.76563
0.75977
0.75
0.74414
0.74414
0.74414
0.75
0.75391
0.75977
0.75977
0.76563
0.76953
0.7793
0.7793
0.7793
0.78516
0.78516
0.78516
0.78516
0.78516
0.7793
0.7793
0.7793
0.7793
0.7793
0.77539
0.76953
0.77539
0.76563
0.74023
0.71484
0.69922
0.68945
0.67969
0.69531
0.73438
0.75977
0.76563
0.74414
0.74023
0.75
0.76563
0.7793
0.78906
0.78516
0.7793
0.7793
0.7793
0.76953
0.76953
0.76953
0.76953
0.76953
0.74414
0.625
0.375
0.18555
0.28516
0.69531
1.0938
1.2598
1.2793
1.2148
1.1387
1.084
1.0449
0.99023
0.88477
0.76953
0.69922
0.67578
0.66016
0.65039
0.64453
0.64063
0.63477
0.625
0.61523
0.60938
0.5957
0.58008
0.56055
0.53906
0.51563
0.49023
0.46484
0.44531
0.43555
0.42969
0.43555
0.45508
0.48047
0.51563
0.55078
0.58984
0.62891
0.66992
0.69922
0.73047
0.75
0.76563
0.76953
0.7793
0.78516
0.78516
0.78516
0.7793
0.76953
0.76953
0.76563
0.76563
0.75977
0.75977
0.75977
0.75977
0.75977
0.76563
0.77539
0.7793
0.78516
0.78516
0.78906
0.78906
0.78906
0.79492
0.79492
0.79883
0.79492
0.79492
0.79492
0.79492
0.78906
0.79492
0.79492
0.78906
0.78906
0.78516
0.77539
0.75391
0.73047
0.71484
0.70508
0.69922
0.72461
0.75977
0.7793
0.77539
0.75977
0.75977
0.76953
0.78516
0.79883
0.80469
0.80469
0.79883
0.79883
0.79883
0.79883
0.79883
0.79492
0.78906
0.78516
0.75391
0.60938
0.34961
0.17578
0.31445
0.74414
1.1289
1.2793
1.2949
1.2188
1.1445
1.0996
1.0645
0.99414
0.88477
0.77539
0.71484
0.68945
0.67969
0.66992
0.66016
0.6543
0.65039
0.64063
0.62891
0.61523
0.60547
0.58398
0.56445
0.53906
0.51563
0.48438
0.46094
0.43945
0.42969
0.42969
0.43555
0.45508
0.48047
0.50977
0.54492
0.58984
0.62891
0.66406
0.70508
0.73438
0.75
0.76563
0.76953
0.77539
0.7793
0.7793
0.77539
0.76953
0.76563
0.75977
0.75391
0.75391
0.74414
0.74414
0.75
0.75391
0.75977
0.75977
0.76563
0.76953
0.77539
0.7793
0.7793
0.78516
0.78516
0.78516
0.78516
0.78516
0.78516
0.78516
0.78516
0.7793
0.77539
0.77539
0.77539
0.76953
0.76953
0.76563
0.76563
0.75391
0.74023
0.71484
0.69531
0.68555
0.67578
0.67578
0.70898
0.74414
0.75391
0.74023
0.74023
0.74414
0.75391
0.76563
0.77539
0.7793
0.76953
0.76953
0.76953
0.76953
0.76953
0.76563
0.76563
0.75977
0.75
0.6543
0.41992
0.18945
0.15625
0.58984
1.0195
1.2188
1.2598
1.209
1.1387
1.0801
1.0449
0.99414
0.9043
0.78906
0.70508
0.66992
0.6543
0.64063
0.62891
0.625
0.61914
0.61523
0.60547
0.5957
0.58398
0.56445
0.54492
0.51953
0.5
0.47461
0.44922
0.42969
0.41602
0.41602
0.41602
0.42578
0.44922
0.48438
0.51953
0.55469
0.5957
0.63477
0.66992
0.69531
0.7207
0.73438
0.74414
0.75391
0.75977
0.76563
0.76563
0.75977
0.75391
0.74414
0.74023
0.74023
0.73438
0.73438
0.73438
0.73438
0.74023
0.74414
0.75391
0.75977
0.76563
0.76953
0.76953
0.77539
0.7793
0.7793
0.78516
0.78516
0.78516
0.78516
0.78516
0.78516
0.78516
0.78516
0.78516
0.78516
0.78516
0.78516
0.78516
0.7793
0.76563
0.74023
0.7207
0.70898
0.69922
0.69922
0.73438
0.76953
0.7793
0.76953
0.75977
0.76563
0.77539
0.79492
0.81055
0.81055
0.81055
0.80469
0.80469
0.79883
0.79883
0.79492
0.79492
0.79492
0.78906
0.71484
0.49414
0.24609
0.17969
0.51563
0.97461
1.2402
1.3047
1.2637
1.1895
1.1289
1.0898
1.0391
0.94531
0.82422
0.74023
0.70508
0.69531
0.68555
0.67578
0.66992
0.66016
0.65039
0.64063
0.62891
0.61523
0.59961
0.58008
0.56055
0.53516
0.50586
0.48047
0.45508
0.43945
0.43555
0.43555
0.44531
0.4707
0.5
0.53516
0.57422
0.61523
0.6543
0.68945
0.7207
0.75
0.76563
0.76953
0.7793
0.78516
0.78516
0.78516
0.78516
0.7793
0.76953
0.76953
0.76953
0.76563
0.76563
0.76563
0.76563
0.76563
0.76953
0.7793
0.7793
0.78516
0.78906
0.78906
0.79492
0.79492
0.79492
0.79883
0.79883
0.79883
0.79883
0.79883
0.79492
0.78906
0.78906
0.78906
0.78906
0.78906
0.78906
0.78906
0.78516
0.7793
0.76563
0.74023
0.72461
0.71484
0.70508
0.7207
0.75391
0.7793
0.77539
0.75977
0.75391
0.76563
0.7793
0.79883
0.80469
0.80469
0.79883
0.79492
0.79492
0.78906
0.78906
0.78516
0.78516
0.78516
0.75
0.58398
0.32031
0.16602
0.33594
0.77539
1.1289
1.2539
1.2695
1.1934
1.125
1.0801
1.0449
0.99023
0.87891
0.76953
0.70898
0.68945
0.67578
0.66406
0.6543
0.65039
0.63477
0.625
0.61523
0.60547
0.58984
0.56445
0.54492
0.51953
0.49023
0.46094
0.43945
0.41992
0.4043
0.40039
0.4043
0.42578
0.45508
0.49023
0.5293
0.57031
0.60938
0.65039
0.68555
0.70898
0.72461
0.74023
0.74414
0.75391
0.75977
0.75977
0.75391
0.75391
0.74414
0.74414
0.74023
0.73438
0.73438
0.73438
0.73438
0.74023
0.74414
0.75391
0.75977
0.76563
0.76953
0.77539
0.7793
0.7793
0.7793
0.7793
0.78516
0.78516
0.78516
0.78516
0.78516
0.7793
0.77539
0.75
0.73438
0.72461
0.71484
0.70508
0.7207
0.75977
0.78516
0.79492
0.78516
0.78516
0.7793
0.79492
0.81055
0.81055
0.81055
0.80469
0.79883
0.79883
0.79883
0.79883
0.79883
0.79883
0.79883
0.76953
0.61914
0.35938
0.18945
0.3457
0.7793
1.1484
1.2891
1.3047
1.2246
1.1543
1.1094
1.0801
1.0098
0.89453
0.78906
0.73047
0.70508
0.69531
0.67969
0.66992
0.66016
0.6543
0.64063
0.62891
0.61523
0.60547
0.58398
0.56445
0.53516
0.50586
0.47461
0.45508
0.43555
0.41992
0.41992
0.42969
0.45508
0.49023
0.51953
0.55469
0.5957
0.64063
0.68555
0.71484
0.74023
0.75977
0.76953
0.7793
0.78516
0.78906
0.79492
0.78906
0.78516
0.78516
0.78516
0.7793
0.77539
0.7793
0.78516
0.78516
0.78516
0.78516
0.78516
0.78906
0.79492
0.79492
0.79883
0.79883
0.79883
0.80469
0.80469
0.79883
0.79883
0.79883
0.79883
0.79883
0.78906
0.78516
0.78516
0.7793
0.7793
0.7793
0.7793
0.7793
0.7793
0.77539
0.77539
0.76953
0.76563
0.76563
0.76953
0.76953
0.75977
0.75
0.74414
0.75391
0.76953
0.78516
0.79492
0.80469
0.80469
0.78906
0.78516
0.78516
0.78516
0.78516
0.78516
0.75
0.58984
0.32422
0.16602
0.33594
0.77539
1.1289
1.2539
1.2695
1.2051
1.1348
1.0801
1.0391
0.97461
0.86523
0.75
0.68945
0.66016
0.65039
0.64063
0.62891
0.625
0.61523
0.61523
0.60547
0.58984
0.58008
0.56445
0.53906
0.51953
0.49023
0.46094
0.42969
0.41016
0.4043
0.40039
0.4043
0.42969
0.45508
0.49023
0.5293
0.57422
0.61523
0.6543
0.68945
0.7207
0.73438
0.74414
0.75391
0.75977
0.75977
0.76563
0.76953
0.77539
0.76563
0.75391
0.74414
0.74414
0.75
0.74414
0.74023
0.74023
0.74414
0.74414
0.75
0.75977
0.76563
0.76563
0.76953
0.76953
0.76953
0.76953
0.76953
0.76953
0.76953
0.76953
0.76953
0.76953
0.76953
0.7793
0.77539
0.76953
0.76953
0.76953
0.76953
0.76953
0.76953
0.76953
0.76953
0.76953
0.7793
0.76953
0.76563
0.76563
0.76953
0.77539
0.7793
0.75977
0.74023
0.71484
0.69531
0.68945
0.68945
0.7207
0.75391
0.76953
0.76563
0.75
0.75
0.75977
0.77539
0.79492
0.79883
0.79883
0.79883
0.79883
0.80469
0.79883
0.78906
0.78906
0.79492
0.78516
0.69922
0.48047
0.2207
0.15039
0.48047
0.95508
1.2402
1.3086
1.2734
1.1934
1.1348
1.0938
1.0449
0.94922
0.83398
0.75391
0.7207
0.69922
0.68945
0.67969
0.67578
0.66992
0.66016
0.65039
0.63477
0.625
0.60547
0.58398
0.56445
0.53906
0.51563
0.49023
0.46484
0.44531
0.43945
0.43945
0.44531
0.46094
0.49023
0.5293
0.56445
0.60547
0.64063
0.67578
0.70898
0.74023
0.75391
0.76953
0.7793
0.78516
0.78516
0.78516
0.78516
0.78906
0.78516
0.76953
0.76953
0.76563
0.75977
0.75391
0.75391
0.75391
0.75977
0.76563
0.76953
0.77539
0.7793
0.78516
0.79492
0.79883
0.79883
0.79883
0.79883
0.79883
0.79883
0.79883
0.79883
0.79883
0.79492
0.79883
0.79492
0.79492
0.78906
0.79492
0.79492
0.78516
0.76563
0.74414
0.72461
0.70898
0.70508
0.73047
0.76563
0.7793
0.76953
0.75977
0.75977
0.77539
0.78906
0.79883
0.80469
0.80469
0.81055
0.79883
0.79883
0.78906
0.78906
0.79492
0.78906
0.7793
0.72461
0.5293
0.26563
0.16602
0.41602
0.87891
1.1895
1.2891
1.2695
1.1934
1.125
1.084
1.0449
0.95898
0.83984
0.74414
0.68945
0.66992
0.66016
0.6543
0.64453
0.63477
0.62891
0.625
0.60938
0.59961
0.58398
0.56445
0.54492
0.51563
0.49023
0.46094
0.42969
0.41016
0.41016
0.41016
0.41602
0.42969
0.46094
0.49414
0.53516
0.58008
0.61914
0.66016
0.68945
0.71484
0.73438
0.75391
0.76563
0.76563
0.76563
0.76953
0.76953
0.76563
0.75391
0.75
0.74414
0.74414
0.74414
0.74414
0.74414
0.74414
0.74414
0.74414
0.75
0.75977
0.76563
0.76563
0.76563
0.76953
0.76953
0.77539
0.76953
0.76953
0.77539
0.76953
0.76953
0.77539
0.7793
0.77539
0.76563
0.76563
0.76563
0.76953
0.75
0.73047
0.70898
0.69922
0.68945
0.68945
0.72461
0.75977
0.76953
0.75977
0.75
0.75
0.76563
0.78516
0.79883
0.80469
0.79883
0.79883
0.79492
0.79492
0.78906
0.78906
0.78516
0.7793
0.77539
0.69922
0.47461
0.2207
0.16016
0.50977
0.96484
1.2344
1.2949
1.2539
1.1797
1.125
1.0898
1.0391
0.94531
0.82422
0.74023
0.69922
0.68945
0.67969
0.67578
0.66406
0.66016
0.6543
0.65039
0.63477
0.61914
0.59961
0.58008
0.56055
0.53516
0.50586
0.47461
0.44922
0.43555
0.43555
0.43555
0.44531
0.4707
0.5
0.53906
0.58398
0.62891
0.66406
0.69922
0.73047
0.75391
0.76563
0.77539
0.78516
0.78906
0.79492
0.79492
0.78906
0.78906
0.78516
0.7793
0.77539
0.77539
0.76953
0.76953
0.77539
0.7793
0.7793
0.7793
0.78516
0.78906
0.79883
0.80469
0.80469
0.79883
0.79883
0.79883
0.80469
0.80469
0.80469
0.80469
0.80469
0.79883
0.79883
0.79883
0.79883
0.79883
0.79883
0.79883
0.78516
0.76563
0.74023
0.72461
0.7207
0.71484
0.73438
0.76953
0.78906
0.78516
0.76953
0.76953
0.7793
0.79492
0.80469
0.81055
0.80469
0.79883
0.79883
0.79883
0.79492
0.79492
0.79883
0.78906
0.78906
0.73438
0.55078
0.29102
0.16992
0.40039
0.85547
1.1895
1.2949
1.2734
1.2051
1.1348
1.0898
1.0488
0.96875
0.85547
0.75391
0.70508
0.68555
0.67578
0.66016
0.6543
0.65039
0.64453
0.63477
0.61914
0.60938
0.5957
0.57422
0.55078
0.51953
0.49023
0.46094
0.43555
0.41602
0.4043
0.40039
0.41016
0.43555
0.46484
0.5
0.53906
0.58008
0.625
0.66406
0.69922
0.7207
0.74023
0.75977
0.76563
0.76953
0.76953
0.76953
0.76953
0.76953
0.76563
0.76563
0.75391
0.75
0.74414
0.74414
0.74414
0.74414
0.75
0.75391
0.75391
0.75977
0.76563
0.76563
0.76563
0.76563
0.76953
0.77539
0.76953
0.76563
0.76563
0.76953
0.76953
0.76563
0.76563
0.76563
0.76563
0.76953
0.76563
0.76563
0.76563
0.76563
0.75
0.7207
0.69922
0.68945
0.67969
0.67578
0.69922
0.74023
0.75977
0.75391
0.74023
0.74023
0.75391
0.77539
0.7793
0.78516
0.78516
0.78516
0.7793
0.7793
0.7793
0.76953
0.76953
0.76563
0.75977
0.68945
0.48047
0.22461
0.16016
0.50586
0.96484
1.2285
1.2891
1.25
1.1699
1.1152
1.0801
1.0293
0.94531
0.83008
0.73438
0.69531
0.67969
0.66992
0.66406
0.6543
0.65039
0.64453
0.64063
0.62891
0.61523
0.59961
0.58008
0.56055
0.5293
0.5
0.48047
0.46094
0.44531
0.43945
0.43945
0.44922
0.46484
0.5
0.53906
0.57422
0.61523
0.6543
0.69531
0.72461
0.75391
0.76953
0.78516
0.78906
0.79492
0.78906
0.78906
0.79492
0.78906
0.78516
0.7793
0.77539
0.76953
0.76953
0.76953
0.76953
0.76953
0.76953
0.76953
0.7793
0.78516
0.78906
0.78906
0.78906
0.79883
0.79883
0.80469
0.79883
0.79883
0.79883
0.80469
0.80469
0.80469
0.79883
0.79492
0.78906
0.79492
0.79492
0.78906
0.78906
0.78906
0.7793
0.75977
0.74023
0.72461
0.70898
0.69922
0.71484
0.75391
0.7793
0.78516
0.76953
0.76563
0.76953
0.7793
0.79883
0.81055
0.81445
0.81055
0.81055
0.81055
0.80469
0.79883
0.79883
0.79883
0.79883
0.76563
0.60938
0.33984
0.16602
0.32422
0.76563
1.1445
1.2891
1.3047
1.2344
1.1602
1.1035
1.0703
1
0.88867
0.7793
0.7207
0.69531
0.67969
0.67578
0.66992
0.66016
0.6543
0.64453
0.62891
0.61523
0.60547
0.58398
0.56445
0.53516
0.50977
0.47461
0.44531
0.42578
0.41016
0.41016
0.41602
0.43555
0.46094
0.5
0.53516
0.57422
0.61914
0.66406
0.69922
0.73047
0.74414
0.75977
0.76953
0.7793
0.78516
0.78516
0.7793
0.77539
0.76953
0.76953
0.76563
0.75977
0.75391
0.75
0.75
0.75391
0.75391
0.75391
0.75977
0.76563
0.76563
0.76953
0.76953
0.7793
0.7793
0.7793
0.77539
0.77539
0.76953
0.76953
0.76953
0.77539
0.76953
0.76563
0.76563
0.76563
0.76563
0.76563
0.75977
0.75977
0.75977
0.75
0.73047
0.69922
0.68945
0.67969
0.66992
0.68555
0.7207
0.75
0.75391
0.73438
0.73047
0.74023
0.75391
0.76953
0.7793
0.77539
0.76953
0.76953
0.76953
0.76953
0.76563
0.76563
0.76563
0.76953
0.73047
0.57031
0.31055
0.16992
0.36523
0.81445
1.1641
1.2793
1.2891
1.2051
1.1289
1.0801
1.0449
0.98047
0.86914
0.76563
0.69922
0.67969
0.67578
0.66406
0.66016
0.6543
0.65039
0.64063
0.62891
0.61914
0.60938
0.58984
0.57422
0.55078
0.51953
0.49414
0.47461
0.45508
0.43945
0.43555
0.44531
0.46484
0.49414
0.52539
0.56055
0.59961
0.64453
0.67969
0.71484
0.74023
0.75977
0.7793
0.78516
0.78906
0.79492
0.79883
0.79883
0.78906
0.78516
0.7793
0.77539
0.76953
0.76563
0.76563
0.75977
0.76563
0.76563
0.76563
0.76563
0.76953
0.77539
0.7793
0.78516
0.78906
0.78906
0.79492
0.79492
0.79492
0.79883
0.79883
0.79492
0.78906
0.78906
0.78906
0.78906
0.78906
0.78906
0.78516
0.78516
0.78516
0.7793
0.76953
0.74414
0.72461
0.71484
0.69922
0.70508
0.73047
0.76953
0.78516
0.77539
0.76563
0.76563
0.77539
0.78906
0.80469
0.80469
0.79883
0.79883
0.79883
0.79883
0.79492
0.78906
0.78906
0.78906
0.7793
0.68555
0.44922
0.20508
0.15625
0.5293
0.98438
1.2441
1.3047
1.2598
1.1836
1.125
1.084
1.0352
0.93945
0.82031
0.73438
0.69922
0.68945
0.67969
0.66992
0.66016
0.6543
0.65039
0.64063
0.62891
0.61523
0.5957
0.57422
0.55078
0.51953
0.49023
0.46484
0.44531
0.42578
0.41602
0.41602
0.42969
0.45508
0.49023
0.52539
0.56445
0.60938
0.66016
0.69531
0.7207
0.74414
0.75977
0.76953
0.7793
0.78516
0.78906
0.78516
0.78516
0.7793
0.77539
0.76563
0.76563
0.75977
0.75391
0.75391
0.75
0.75391
0.75391
0.75391
0.75977
0.75977
0.76563
0.76953
0.77539
0.7793
0.7793
0.78516
0.7793
0.7793
0.7793
0.7793
0.7793
0.7793
0.77539
0.77539
0.77539
0.77539
0.76953
0.76953
0.76563
0.76563
0.75977
0.74414
0.73047
0.70508
0.69531
0.67969
0.67578
0.70508
0.74414
0.75977
0.75
0.74023
0.74023
0.75
0.76563
0.7793
0.78516
0.7793
0.76953
0.76953
0.76563
0.76563
0.76563
0.75977
0.75977
0.74414
0.6543
0.42578
0.20117
0.16016
0.56445
1.0039
1.2344
1.2793
1.2344
1.1543
1.0938
1.0547
1.0098
0.91992
0.79883
0.71484
0.67578
0.66016
0.65039
0.64063
0.63477
0.62891
0.625
0.61523
0.60547
0.5957
0.58008
0.56445
0.53906
0.51563
0.48438
0.45508
0.43555
0.41602
0.41016
0.41016
0.42578
0.44922
0.48047
0.51953
0.56055
0.60547
0.64453
0.68555
0.70898
0.73438
0.75
0.76563
0.76953
0.7793
0.78516
0.78516
0.78516
0.78516
0.78516
0.7793
0.76953
0.76563
0.76563
0.75977
0.75977
0.76563
0.76953
0.76953
0.76953
0.7793
0.78516
0.78906
0.78906
0.79492
0.79492
0.79883
0.79883
0.80469
0.80469
0.80469
0.80469
0.79883
0.79883
0.79883
0.79883
0.79492
0.79492
0.79492
0.79492
0.78906
0.78906
0.78516
0.75977
0.74023
0.72461
0.71484
0.70508
0.72461
0.76563
0.78906
0.78906
0.77539
0.76953
0.7793
0.79492
0.80469
0.81055
0.81055
0.80469
0.80469
0.80469
0.79883
0.79883
0.79492
0.79492
0.78906
0.74414
0.56055
0.29102
0.16602
0.39063
0.85547
1.1895
1.2988
1.3086
1.2188
1.1445
1.1035
1.0586
0.98047
0.86523
0.76563
0.71484
0.69922
0.68945
0.67969
0.67578
0.66406
0.6543
0.65039
0.64063
0.62891
0.61523
0.5957
0.57422
0.54492
0.51953
0.49023
0.46094
0.43945
0.42969
0.42578
0.43555
0.45508
0.49023
0.52539
0.56445
0.60938
0.6543
0.68945
0.72461
0.75
0.76953
0.78516
0.78906
0.79492
0.79883
0.79883
0.79492
0.79492
0.78906
0.78516
0.7793
0.7793
0.76953
0.76953
0.76953
0.76953
0.76953
0.7793
0.7793
0.7793
0.78516
0.78906
0.78906
0.78906
0.78906
0.79492
0.78906
0.78906
0.78906
0.78906
0.78906
0.78906
0.78906
0.78906
0.78906
0.78516
0.78516
0.7793
0.7793
0.7793
0.76563
0.73438
0.71484
0.70508
0.69531
0.69531
0.71484
0.75391
0.76953
0.76563
0.75391
0.75391
0.76563
0.7793
0.78906
0.79492
0.78906
0.78906
0.78906
0.78516
0.7793
0.7793
0.7793
0.77539
0.75977
0.66992
0.43555
0.20508
0.16016
0.57031
1.0137
1.2402
1.2852
1.2402
1.1641
1.1035
1.0703
1.0254
0.92969
0.81055
0.72461
0.68555
0.67578
0.66016
0.6543
0.65039
0.64063
0.62891
0.625
0.60938
0.5957
0.58008
0.55469
0.53516
0.50586
0.4707
0.44531
0.41992
0.40039
0.39453
0.39453
0.41016
0.43945
0.4707
0.50977
0.55469
0.59961
0.64063
0.67578
0.70898
0.73047
0.75
0.75977
0.76563
0.76953
0.77539
0.7793
0.7793
0.76953
0.76953
0.76563
0.75977
0.75391
0.75391
0.75391
0.75
0.74414
0.74414
0.75
0.75391
0.75977
0.76953
0.77539
0.7793
0.7793
0.78516
0.78516
0.78516
0.78516
0.78516
0.78516
0.78906
0.78906
0.78906
0.78906
0.78516
0.78516
0.78516
0.78516
0.7793
0.76563
0.74023
0.7207
0.70508
0.69922
0.69922
0.73438
0.76953
0.78516
0.76953
0.76563
0.76563
0.77539
0.78906
0.80469
0.81055
0.80469
0.80469
0.79883
0.79883
0.79883
0.79492
0.78906
0.78906
0.7793
0.68945
0.46094
0.21094
0.16016
0.55078
1.0098
1.2539
1.3145
1.2637
1.1895
1.125
1.084
1.0293
0.92969
0.81445
0.73438
0.69922
0.68945
0.67969
0.67578
0.66992
0.66016
0.65039
0.64453
0.63477
0.61914
0.59961
0.58008
0.56055
0.5293
0.5
0.4707
0.44531
0.42969
0.41602
0.41992
0.43555
0.46094
0.5
0.53516
0.57422
0.61914
0.66406
0.70508
0.73438
0.75977
0.77539
0.78906
0.79883
0.80469
0.80469
0.79883
0.79492
0.78906
0.78906
0.78516
0.7793
0.77539
0.76953
0.76953
0.76953
0.77539
0.7793
0.7793
0.78516
0.78516
0.78906
0.78906
0.78906
0.79492
0.79492
0.79883
0.79883
0.79492
0.78906
0.79492
0.78906
0.78906
0.78906
0.78906
0.78906
0.78906
0.78906
0.78516
0.77539
0.75391
0.73047
0.71484
0.69922
0.69922
0.71484
0.75
0.77539
0.7793
0.75977
0.75977
0.76563
0.7793
0.79883
0.80469
0.79883
0.79883
0.79492
0.78906
0.78906
0.78516
0.78516
0.78516
0.78516
0.73438
0.56445
0.29492
0.16016
0.35938
0.81445
1.1641
1.2852
1.2949
1.2051
1.1289
1.084
1.0488
0.97461
0.85938
0.75391
0.69922
0.67969
0.66992
0.66016
0.65039
0.64453
0.64063
0.63477
0.625
0.60938
0.5957
0.57422
0.55469
0.52539
0.49414
0.46094
0.43555
0.41602
0.4043
0.40039
0.41016
0.42969
0.46094
0.49414
0.53906
0.58398
0.62891
0.66406
0.70508
0.73047
0.75
0.75977
0.76953
0.77539
0.7793
0.7793
0.7793
0.77539
0.76563
0.75977
0.75391
0.75391
0.75
0.74414
0.74414
0.74414
0.74414
0.74414
0.75
0.75391
0.75391
0.75977
0.76563
0.76563
0.76563
0.76953
0.76563
0.76563
0.76563
0.76563
0.76563
0.76953
0.76563
0.76563
0.76563
0.76563
0.76563
0.76563
0.76953
0.75
0.7207
0.69922
0.68945
0.67969
0.67578
0.70508
0.75
0.75977
0.75391
0.74023
0.74023
0.75391
0.77539
0.78516
0.78516
0.78516
0.7793
0.77539
0.76953
0.76953
0.76953
0.76563
0.76563
0.75977
0.67578
0.44922
0.20508
0.15625
0.5293
0.99023
1.2402
1.2949
1.2539
1.1699
1.1035
1.0645
1.0195
0.92383
0.81055
0.72461
0.68945
0.67578
0.66406
0.66016
0.6543
0.65039
0.64453
0.63477
0.625
0.61523
0.5957
0.58398
0.56055
0.53516
0.50586
0.47461
0.44531
0.42969
0.41992
0.41992
0.43555
0.46094
0.49414
0.53516
0.57422
0.61914
0.66016
0.69531
0.72461
0.75
0.76953
0.78516
0.78906
0.79492
0.79883
0.79492
0.78906
0.78906
0.78516
0.7793
0.77539
0.76953
0.76563
0.76563
0.76563
0.76953
0.76953
0.76953
0.77539
0.7793
0.78516
0.78906
0.78906
0.78906
0.79883
0.79883
0.79883
0.79883
0.79883
0.79883
0.79883
0.79492
0.78906
0.78906
0.78906
0.78906
0.78906
0.78906
0.78906
0.78516
0.77539
0.75977
0.74023
0.72461
0.70898
0.69922
0.70508
0.74023
0.77539
0.7793
0.76953
0.75977
0.76563
0.7793
0.79492
0.80469
0.80469
0.80469
0.79883
0.79883
0.79492
0.78906
0.78906
0.78906
0.78906
0.75391
0.60547
0.33984
0.16016
0.29492
0.73438
1.1348
1.2891
1.3047
1.2344
1.1602
1.1035
1.0645
1
0.88477
0.7793
0.7207
0.69531
0.67969
0.67578
0.66992
0.66406
0.6543
0.64453
0.63477
0.61914
0.60938
0.5957
0.57422
0.54492
0.51953
0.48438
0.45508
0.42969
0.41992
0.41602
0.41602
0.43555
0.4707
0.50586
0.55078
0.58984
0.62891
0.67578
0.70898
0.74023
0.75977
0.7793
0.78516
0.79492
0.79883
0.79883
0.79883
0.79492
0.78906
0.78516
0.78516
0.7793
0.76953
0.76953
0.76953
0.76953
0.76953
0.76953
0.77539
0.7793
0.78516
0.78906
0.78906
0.78906
0.78906
0.79492
0.78906
0.79492
0.79883
0.79492
0.79492
0.78906
0.78906
0.78906
0.78906
0.78516
0.78516
0.78516
0.78516
0.7793
0.77539
0.76563
0.74023
0.71484
0.69922
0.69531
0.68945
0.70898
0.74414
0.76563
0.76953
0.75391
0.75
0.75391
0.76563
0.78516
0.78906
0.78516
0.78516
0.78516
0.7793
0.77539
0.77539
0.77539
0.76953
0.76953
0.71484
0.52539
0.26563
0.15625
0.41016
0.87891
1.1934
1.2891
1.2695
1.1895
1.1191
1.0703
1.0352
0.95508
0.83984
0.74414
0.68945
0.66992
0.6543
0.65039
0.64063
0.63477
0.63477
0.625
0.60938
0.59961
0.58398
0.56445
0.54492
0.51953
0.49414
0.46094
0.43945
0.41992
0.41016
0.4043
0.41016
0.43555
0.4707
0.50977
0.55078
0.5957
0.64063
0.67578
0.70898
0.73438
0.75391
0.76953
0.7793
0.78516
0.78906
0.78516
0.78906
0.78906
0.78516
0.7793
0.7793
0.76953
0.76563
0.75977
0.75977
0.75977
0.75977
0.76563
0.76563
0.76953
0.77539
0.7793
0.78516
0.78906
0.78906
0.78906
0.78906
0.78906
0.78906
0.78906
0.78906
0.78906
0.78906
0.78906
0.79492
0.78906
0.78906
0.78516
0.78516
0.7793
0.76953
0.75
0.73047
0.71484
0.69922
0.69531
0.71484
0.75391
0.77539
0.76563
0.75
0.74414
0.75391
0.77539
0.78906
0.79492
0.78516
0.78516
0.78516
0.7793
0.7793
0.77539
0.76953
0.76953
0.75977
0.68945
0.48047
0.22461
0.15039
0.44531
0.91992
1.2148
1.2891
1.2637
1.1895
1.1191
1.084
1.0352
0.94922
0.83008
0.74023
0.68945
0.67578
0.66406
0.66016
0.6543
0.6543
0.64453
0.63477
0.625
0.60938
0.5957
0.58008
0.55469
0.52539
0.5
0.47461
0.44922
0.42578
0.41602
0.41602
0.42578
0.45508
0.49023
0.5293
0.57422
0.62891
0.66992
0.70898
0.74414
0.76563
0.78516
0.79883
0.81055
0.81055
0.81445
0.81055
0.81055
0.80469
0.80469
0.79492
0.78906
0.78516
0.78516
0.7793
0.7793
0.78516
0.78516
0.78516
0.78906
0.78906
0.79883
0.79883
0.79883
0.79883
0.80469
0.79883
0.79883
0.79883
0.79883
0.79883
0.79883
0.79883
0.79883
0.79492
0.78906
0.78906
0.78906
0.78906
0.79492
0.78516
0.76953
0.74023
0.72461
0.70898
0.69922
0.70898
0.74414
0.77539
0.7793
0.76563
0.75977
0.76563
0.7793
0.79492
0.80469
0.79883
0.78906
0.78906
0.78906
0.78906
0.78516
0.78516
0.7793
0.78516
0.74414
0.58008
0.31055
0.14063
0.30078
0.74023
1.1289
1.2852
1.2988
1.2188
1.1445
1.0938
1.0547
0.99023
0.875
0.76563
0.69922
0.67578
0.66406
0.66016
0.6543
0.65039
0.64063
0.63477
0.62891
0.61523
0.59961
0.58008
0.56055
0.53516
0.50586
0.47461
0.44531
0.42578
0.41016
0.4043
0.41016
0.42969
0.46094
0.5
0.53516
0.58398
0.62891
0.66992
0.70508
0.73438
0.75391
0.76953
0.78516
0.78906
0.79492
0.79492
0.79883
0.78906
0.78516
0.7793
0.76953
0.76563
0.76563
0.75977
0.75977
0.75977
0.75977
0.75977
0.76563
0.76953
0.77539
0.77539
0.7793
0.7793
0.7793
0.7793
0.7793
0.7793
0.7793
0.7793
0.7793
0.77539
0.77539
0.77539
0.77539
0.77539
0.76953
0.76953
0.76953
0.76563
0.76563
0.75977
0.74023
0.71484
0.69922
0.68945
0.68555
0.69922
0.74023
0.75977
0.76563
0.75
0.74414
0.74414
0.75977
0.77539
0.78516
0.7793
0.76953
0.76953
0.76563
0.76563
0.75977
0.75977
0.75391
0.75391
0.70508
0.52539
0.25586
0.12109
0.32422
0.78516
1.1445
1.2695
1.2852
1.1895
1.1094
1.0645
1.0293
0.95508
0.83984
0.73047
0.67578
0.66016
0.65039
0.64063
0.63477
0.62891
0.61914
0.60938
0.5957
0.58398
0.57031
0.55078
0.5293
0.5
0.4707
0.43945
0.4043
0.38086
0.36523
0.36523
0.37109
0.39453
0.42578
0.46094
0.50586
0.55078
0.5957
0.63477
0.66992
0.69922
0.7207
0.73438
0.74414
0.75
0.75391
0.75391
0.75977
0.75977
0.75391
0.75
0.74414
0.74023
0.73438
0.73438
0.73438
0.73047
0.73438
0.73438
0.74023
0.74414
0.75
0.75
0.75391
0.75977
0.76563
0.76563
0.76563
0.76563
0.76953
0.77539
0.7793
0.76953
0.76953
0.76953
0.76953
0.76953
0.76953
0.77539
0.7793
0.77539
0.76563
0.75391
0.73047
0.71484
0.69922
0.69531
0.68945
0.72461
0.75977
0.7793
0.76563
0.75977
0.76563
0.77539
0.79492
0.80469
0.81055
0.80469
0.80469
0.80469
0.80469
0.80469
0.79883
0.79883
0.79883
0.78516
0.67969
0.43555
0.21094
0.17578
0.61523
1.0645
1.2891
1.334
1.2793
1.1934
1.1348
1.0938
1.0391
0.93555
0.81445
0.74414
0.70898
0.69531
0.68555
0.67969
0.67578
0.66992
0.66016
0.6543
0.64063
0.625
0.60938
0.58398
0.56055
0.53516
0.5
0.4707
0.44922
0.42969
0.41992
0.41992
0.43555
0.46094
0.5
0.53516
0.58398
0.625
0.66406
0.70508
0.73438
0.75977
0.77539
0.78516
0.78906
0.79883
0.80469
0.79883
0.79883
0.79883
0.78906
0.78516
0.7793
0.77539
0.76953
0.76953
0.76953
0.77539
0.7793
0.7793
0.7793
0.78516
0.78906
0.78906
0.79492
0.79883
0.79883
0.79883
0.79883
0.79883
0.79883
0.79883
0.79883
0.79883
0.79492
0.79492
0.79492
0.79492
0.79492
0.79492
0.79492
0.78906
0.78516
0.76563
0.74023
0.7207
0.70898
0.69922
0.70898
0.74414
0.7793
0.78516
0.76953
0.75977
0.75977
0.77539
0.79492
0.80469
0.81055
0.80469
0.79883
0.79883
0.79883
0.79492
0.78906
0.78906
0.78906
0.75
0.5957
0.33594
0.15039
0.28516
0.73047
1.1289
1.2852
1.3047
1.2285
1.1484
1.0996
1.0586
0.99414
0.88477
0.77539
0.71484
0.68945
0.67969
0.66992
0.66406
0.66016
0.6543
0.65039
0.63477
0.625
0.60938
0.58984
0.57031
0.54492
0.50977
0.48047
0.44922
0.42578
0.41016
0.41016
0.41602
0.43555
0.46484
0.5
0.53516
0.58398
0.625
0.66406
0.70508
0.73438
0.75391
0.76953
0.78516
0.78906
0.79492
0.79883
0.79492
0.78906
0.78516
0.7793
0.76953
0.76563
0.75977
0.75391
0.75977
0.75977
0.75977
0.75977
0.76563
0.76953
0.77539
0.7793
0.7793
0.78516
0.78516
0.78516
0.78906
0.78906
0.78906
0.78516
0.78906
0.78516
0.78516
0.78516
0.78516
0.78516
0.78516
0.7793
0.7793
0.76953
0.75977
0.73438
0.71484
0.69922
0.68945
0.68555
0.69922
0.74023
0.75977
0.76563
0.74414
0.74023
0.75391
0.76563
0.7793
0.78906
0.78516
0.78516
0.78516
0.7793
0.7793
0.77539
0.76953
0.76953
0.76563
0.69922
0.49414
0.23438
0.16016
0.43945
0.90039
1.1992
1.2852
1.2598
1.1797
1.1094
1.0703
1.0293
0.94922
0.83398
0.73438
0.68945
0.66992
0.6543
0.65039
0.64453
0.64063
0.62891
0.625
0.60938
0.59961
0.58398
0.56445
0.53906
0.51563
0.49023
0.46094
0.42969
0.41016
0.40039
0.40039
0.41016
0.43555
0.4707
0.50977
0.55078
0.5957
0.64063
0.67969
0.71484
0.74023
0.75391
0.76953
0.7793
0.78516
0.78906
0.79492
0.79883
0.79883
0.78906
0.78516
0.78516
0.7793
0.76953
0.76563
0.76563
0.76563
0.76953
0.77539
0.77539
0.7793
0.78516
0.78906
0.78906
0.79492
0.79883
0.80469
0.80469
0.80469
0.80469
0.79883
0.79883
0.79883
0.79883
0.79883
0.79883
0.79883
0.79492
0.78906
0.78516
0.7793
0.76953
0.75
0.73047
0.71484
0.70508
0.69922
0.7207
0.75977
0.7793
0.77539
0.76563
0.75977
0.76953
0.7793
0.79883
0.80469
0.80469
0.79883
0.79883
0.79883
0.79492
0.78906
0.78516
0.78516
0.7793
0.70508
0.48438
0.22461
0.15625
0.46484
0.93555
1.2246
1.3047
1.2793
1.2051
1.1289
1.084
1.0352
0.94531
0.83008
0.73438
0.69531
0.67969
0.67578
0.66406
0.66016
0.6543
0.64453
0.63477
0.625
0.60938
0.5957
0.58008
0.56055
0.5293
0.5
0.4707
0.44531
0.41992
0.41016
0.41016
0.41992
0.44922
0.48438
0.52539
0.56445
0.60938
0.6543
0.69531
0.73047
0.75391
0.77539
0.78516
0.79883
0.80469
0.80469
0.80469
0.80469
0.79883
0.79492
0.78906
0.78516
0.7793
0.7793
0.7793
0.7793
0.7793
0.7793
0.78516
0.78906
0.78906
0.79883
0.80469
0.80469
0.80469
0.80469
0.80469
0.80469
0.79883
0.79883
0.80469
0.79883
0.79883
0.79883
0.79883
0.79883
0.79883
0.79492
0.79492
0.78906
0.78516
0.76953
0.75
0.72461
0.71484
0.69922
0.70508
0.74023
0.77539
0.7793
0.75977
0.75391
0.75977
0.76953
0.78516
0.79883
0.79883
0.79883
0.78906
0.78906
0.78906
0.78906
0.78516
0.7793
0.7793
0.75
0.61523
0.35938
0.15039
0.14453
0.6543
1.0742
1.2598
1.2852
1.2285
1.1543
1.0996
1.0586
1
0.89453
0.7793
0.70898
0.68555
0.66992
0.6543
0.65039
0.64453
0.63477
0.62891
0.61914
0.60938
0.5957
0.57422
0.55469
0.52539
0.5
0.4707
0.43945
0.41602
0.4043
0.39453
0.40039
0.41602
0.44922
0.48438
0.52539
0.56445
0.60938
0.65039
0.68945
0.7207
0.74023
0.75977
0.76563
0.76953
0.7793
0.7793
0.7793
0.7793
0.77539
0.76953
0.76563
0.75391
0.74414
0.74023
0.74023
0.74414
0.74414
0.74414
0.75391
0.75977
0.76563
0.76563
0.76563
0.76953
0.76953
0.77539
0.77539
0.77539
0.7793
0.7793
0.7793
0.77539
0.76953
0.76953
0.76953
0.76953
0.76953
0.76953
0.76953
0.75977
0.74023
0.71484
0.69922
0.68945
0.67969
0.68555
0.71484
0.75
0.75977
0.74414
0.74023
0.74414
0.75977
0.77539
0.78516
0.78516
0.7793
0.7793
0.77539
0.76953
0.76953
0.76953
0.76953
0.76953
0.74414
0.60938
0.35547
0.16016
0.25977
0.68555
1.0938
1.2734
1.2988
1.2344
1.1484
1.0938
1.0586
1
0.89453
0.77539
0.70508
0.67969
0.66992
0.66016
0.6543
0.65039
0.64063
0.63477
0.625
0.61523
0.59961
0.58398
0.56445
0.53906
0.51563
0.48438
0.45508
0.43555
0.41992
0.41602
0.41992
0.43555
0.46484
0.5
0.53516
0.58398
0.625
0.66406
0.69922
0.73047
0.75391
0.76953
0.7793
0.78906
0.79492
0.79883
0.79883
0.79492
0.78906
0.78906
0.7793
0.77539
0.76953
0.76563
0.76563
0.76563
0.76953
0.76953
0.76953
0.7793
0.7793
0.78516
0.78906
0.78906
0.79492
0.79883
0.79883
0.79883
0.79883
0.79883
0.79492
0.79492
0.78906
0.78906
0.78906
0.78906
0.78906
0.78906
0.78906
0.7793
0.75977
0.73438
0.71484
0.70508
0.69922
0.71484
0.75
0.7793
0.78516
0.76563
0.75977
0.76563
0.7793
0.79492
0.80469
0.80469
0.79883
0.79883
0.79883
0.79492
0.78906
0.78906
0.78516
0.78516
0.74414
0.57422
0.31055
0.15039
0.33008
0.78516
1.1602
1.2949
1.3047
1.2188
1.1445
1.0996
1.0586
0.98438
0.86914
0.76563
0.70898
0.68945
0.67969
0.66992
0.66016
0.6543
0.65039
0.64063
0.62891
0.61523
0.59961
0.58398
0.56055
0.53516
0.50977
0.48047
0.44922
0.42969
0.41602
0.41016
0.41992
0.43945
0.4707
0.50586
0.54492
0.58984
0.63477
0.67578
0.70898
0.73438
0.75977
0.77539
0.78516
0.78906
0.79492
0.79492
0.79492
0.78906
0.78906
0.78516
0.77539
0.76953
0.76563
0.75977
0.75977
0.76563
0.76563
0.76953
0.76953
0.77539
0.7793
0.78516
0.78516
0.78516
0.78906
0.78906
0.78906
0.78906
0.78906
0.78906
0.78906
0.78906
0.78906
0.78906
0.78906
0.78906
0.78906
0.78516
0.78516
0.76953
0.75391
0.73047
0.71484
0.70508
0.69922
0.71484
0.75391
0.77539
0.7793
0.75977
0.75391
0.76563
0.7793
0.79492
0.80469
0.79883
0.79883
0.79492
0.78906
0.78516
0.78516
0.78516
0.7793
0.7793
0.72461
0.52539
0.25586
0.15039
0.41016
0.87891
1.1895
1.2852
1.2695
1.1934
1.125
1.084
1.0449
0.96484
0.84961
0.75391
0.70508
0.67969
0.66992
0.66016
0.6543
0.64453
0.63477
0.62891
0.61523
0.60547
0.58984
0.57031
0.54492
0.51563
0.49023
0.46094
0.43555
0.41016
0.40039
0.39453
0.4043
0.42578
0.45508
0.49414
0.53516
0.58008
0.625
0.66016
0.69531
0.7207
0.74023
0.75391
0.76563
0.76953
0.77539
0.7793
0.77539
0.76953
0.76563
0.75977
0.75
0.74414
0.74414
0.74414
0.74414
0.74414
0.75
0.75391
0.75977
0.76563
0.76953
0.76953
0.77539
0.7793
0.7793
0.7793
0.7793
0.7793
0.7793
0.7793
0.7793
0.7793
0.7793
0.7793
0.7793
0.7793
0.7793
0.77539
0.76953
0.76953
0.76563
0.75
0.72461
0.70508
0.69531
0.68555
0.69531
0.73438
0.76563
0.76953
0.75391
0.75
0.75391
0.76563
0.78516
0.79492
0.79492
0.79492
0.78906
0.78906
0.78906
0.78516
0.7793
0.7793
0.7793
0.74414
0.58984
0.32422
0.14453
0.30078
0.75
1.1348
1.2793
1.2949
1.2188
1.1445
1.0938
1.0547
0.98047
0.86523
0.76563
0.70508
0.68555
0.67578
0.66992
0.66016
0.6543
0.64453
0.63477
0.62891
0.61523
0.59961
0.58398
0.56445
0.53906
0.50977
0.48047
0.44922
0.42969
0.41602
0.41602
0.41602
0.43555
0.46094
0.5
0.53516
0.58008
0.61914
0.66406
0.69922
0.73047
0.75391
0.76953
0.7793
0.78516
0.78906
0.78906
0.78906
0.78906
0.78516
0.7793
0.76953
0.76563
0.76563
0.75977
0.75977
0.75977
0.76563
0.76563
0.76953
0.77539
0.7793
0.78516
0.78906
0.78906
0.78906
0.78906
0.78906
0.78906
0.78906
0.78906
0.78906
0.79492
0.79492
0.78906
0.78906
0.78906
0.78906
0.78516
0.78516
0.7793
0.76953
0.75
0.73047
0.71484
0.70508
0.69922
0.7207
0.75977
0.7793
0.76953
0.75977
0.75391
0.76563
0.7793
0.79492
0.80469
0.79883
0.79883
0.79883
0.79492
0.79492
0.78906
0.78516
0.78516
0.7793
0.70898
0.50586
0.24609
0.16602
0.44531
0.91016
1.2051
1.2852
1.2598
1.1895
1.1191
1.0801
1.0352
0.95508
0.83984
0.74414
0.69922
0.68555
0.67578
0.66016
0.66016
0.6543
0.65039
0.63477
0.625
0.61523
0.59961
0.58008
0.56055
0.53516
0.50977
0.48047
0.45508
0.43555
0.42578
0.42578
0.43555
0.45508
0.48438
0.52539
0.56445
0.60547
0.64453
0.68555
0.71484
0.74023
0.75977
0.77539
0.78516
0.78906
0.78906
0.78906
0.78906
0.78516
0.7793
0.77539
0.76563
0.75977
0.75391
0.75
0.75
0.75
0.75391
0.75977
0.76563
0.76563
0.76953
0.77539
0.7793
0.7793
0.7793
0.78516
0.78516
0.7793
0.7793
0.7793
0.7793
0.7793
0.7793
0.7793
0.77539
0.77539
0.77539
0.77539
0.76953
0.76953
0.75977
0.74023
0.71484
0.69922
0.68945
0.68945
0.69922
0.74023
0.75977
0.76563
0.74414
0.74414
0.75391
0.76563
0.78516
0.78906
0.78516
0.78516
0.78516
0.78516
0.7793
0.77539
0.76953
0.76953
0.76563
0.71484
0.5293
0.26953
0.16016
0.40039
0.85938
1.1836
1.2793
1.2852
1.1895
1.1152
1.0742
1.0391
0.96875
0.85547
0.75391
0.69922
0.67969
0.66992
0.66406
0.66016
0.6543
0.65039
0.64063
0.62891
0.61523
0.60547
0.58398
0.56445
0.53906
0.51563
0.49023
0.46484
0.44531
0.42969
0.42969
0.43945
0.45508
0.48438
0.51953
0.55469
0.5957
0.63477
0.67578
0.70898
0.73047
0.75
0.76563
0.77539
0.7793
0.78516
0.78906
0.78516
0.78516
0.7793
0.76953
0.75977
0.75977
0.75391
0.75391
0.75
0.75391
0.75391
0.75977
0.75977
0.76563
0.76953
0.7793
0.7793
0.78516
0.78516
0.78906
0.78906
0.78906
0.78906
0.78906
0.78906
0.78906
0.78906
0.79492
0.78906
0.78906
0.78906
0.78906
0.78906
0.78516
0.78516
0.7793
0.75977
0.74023
0.7207
0.70898
0.69922
0.70508
0.74023
0.77539
0.7793
0.76563
0.75391
0.75977
0.77539
0.79492
0.80469
0.80469
0.79883
0.79883
0.79492
0.79492
0.78906
0.78906
0.78516
0.78516
0.75
0.58984
0.32422
0.15625
0.31445
0.75977
1.1387
1.2852
1.2988
1.2246
1.1484
1.0938
1.0586
0.99023
0.87891
0.77539
0.71484
0.69531
0.67969
0.67578
0.66992
0.66016
0.6543
0.65039
0.63477
0.625
0.60938
0.58984
0.57422
0.55078
0.51953
0.49414
0.4707
0.44922
0.43555
0.42969
0.43555
0.44922
0.48047
0.50977
0.55078
0.5957
0.63477
0.67578
0.71484
0.74023
0.75977
0.7793
0.78906
0.79492
0.79883
0.79883
0.79492
0.78906
0.78516
0.7793
0.76953
0.76953
0.76563
0.75977
0.75977
0.76563
0.76563
0.76953
0.7793
0.7793
0.78516
0.78516
0.78906
0.79492
0.79883
0.79883
0.79883
0.78906
0.76563
0.74414
0.73438
0.7207
0.70508
0.71484
0.75977
0.79492
0.80469
0.79883
0.78516
0.78516
0.79492
0.81055
0.82031
0.82422
0.81445
0.81445
0.81445
0.81055
0.81055
0.80469
0.80469
0.80469
0.78516
0.67578
0.42578
0.21094
0.18945
0.6543
1.0742
1.2734
1.3047
1.25
1.1641
1.1035
1.0703
1.0137
0.91406
0.79883
0.7207
0.68945
0.67578
0.66406
0.6543
0.65039
0.64453
0.63477
0.62891
0.61523
0.60547
0.58398
0.56445
0.53906
0.50977
0.48047
0.44922
0.42969
0.41602
0.41016
0.41602
0.43555
0.46094
0.49414
0.53516
0.58008
0.62891
0.66992
0.70898
0.73438
0.75391
0.76953
0.7793
0.78516
0.78906
0.79492
0.78906
0.78516
0.7793
0.77539
0.76953
0.76563
0.75977
0.75977
0.75977
0.76563
0.76563
0.76953
0.76953
0.77539
0.7793
0.7793
0.7793
0.78516
0.78516
0.78906
0.78906
0.78906
0.78906
0.78906
0.78906
0.78906
0.78906
0.78906
0.78906
0.78906
0.78906
0.78516
0.78516
0.78516
0.78516
0.78516
0.7793
0.7793
0.7793
0.7793
0.77539
0.76953
0.75
0.73047
0.71484
0.69922
0.69531
0.70508
0.74414
0.77539
0.78516
0.76953
0.75977
0.75977
0.76953
0.78516
0.79492
0.79492
0.78906
0.78906
0.78906
0.78906
0.78516
0.78516
0.7793
0.7793
0.7207
0.5293
0.26563
0.15039
0.39063
0.85938
1.1895
1.2891
1.2949
1.1934
1.1191
1.0801
1.0449
0.96484
0.84961
0.75
0.70508
0.68945
0.67578
0.66992
0.66406
0.66016
0.6543
0.64453
0.63477
0.61914
0.60547
0.58984
0.57031
0.54492
0.52539
0.5
0.47461
0.44922
0.43945
0.43555
0.43945
0.45508
0.48047
0.51563
0.55078
0.58984
0.62891
0.66992
0.70508
0.73438
0.75391
0.76953
0.7793
0.78516
0.78516
0.78516
0.7793
0.77539
0.76953
0.76563
0.75977
0.75391
0.75
0.75
0.75
0.75391
0.75391
0.76563
0.76953
0.77539
0.7793
0.7793
0.78516
0.78906
0.78906
0.78906
0.78906
0.78906
0.78906
0.78906
0.78906
0.78906
0.78906
0.78516
0.78906
0.78516
0.78516
0.78516
0.78516
0.78516
0.78516
0.78516
0.77539
0.75391
0.73047
0.71484
0.69922
0.68945
0.68555
0.72461
0.76563
0.78516
0.78516
0.76953
0.76563
0.76563
0.7793
0.78906
0.79492
0.78906
0.78906
0.78906
0.78516
0.78516
0.7793
0.7793
0.7793
0.74023
0.57422
0.31055
0.15625
0.3457
0.79492
1.1445
1.2637
1.2734
1.1934
1.125
1.0801
1.0391
0.97461
0.86523
0.75977
0.69922
0.67969
0.67578
0.66406
0.66016
0.6543
0.65039
0.64063
0.62891
0.61523
0.60547
0.58984
0.57031
0.54492
0.51953
0.49414
0.47461
0.45508
0.43945
0.43945
0.43945
0.45508
0.48047
0.51563
0.55078
0.58984
0.62891
0.66992
0.69922
0.73047
0.75
0.76563
0.76953
0.7793
0.7793
0.7793
0.7793
0.76953
0.76563
0.75977
0.75391
0.74414
0.74414
0.74414
0.74414
0.74414
0.75391
0.75391
0.75977
0.75977
0.76563
0.76563
0.76953
0.77539
0.7793
0.7793
0.7793
0.7793
0.7793
0.7793
0.7793
0.7793
0.7793
0.77539
0.76953
0.76953
0.76953
0.76953
0.76953
0.76953
0.76563
0.76563
0.76563
0.75977
0.74414
0.7207
0.69922
0.68945
0.67969
0.67969
0.70898
0.75
0.76563
0.75977
0.74414
0.74414
0.75391
0.76953
0.78516
0.78516
0.78516
0.7793
0.7793
0.7793
0.76953
0.76953
0.76953
0.76953
0.75
0.62891
0.375
0.16992
0.16016
0.66406
1.0703
1.25
1.2695
1.2148
1.1387
1.0898
1.0488
1
0.9043
0.78906
0.7207
0.68945
0.67969
0.66992
0.66406
0.66016
0.6543
0.65039
0.63477
0.625
0.60938
0.59961
0.58398
0.56055
0.53516
0.50977
0.48438
0.46484
0.45508
0.44922
0.44922
0.46094
0.48047
0.51563
0.54492
0.58398
0.61914
0.66016
0.69531
0.72461
0.74414
0.75977
0.76953
0.7793
0.78516
0.78516
0.78516
0.7793
0.76953
0.76563
0.75977
0.75391
0.75
0.74414
0.74414
0.74414
0.75
0.75391
0.75977
0.76563
0.76953
0.76953
0.77539
0.77539
0.7793
0.78516
0.78516
0.78516
0.78516
0.78516
0.78516
0.78516
0.78906
0.78516
0.78516
0.78516
0.78516
0.7793
0.7793
0.7793
0.78516
0.7793
0.76563
0.74414
0.7207
0.70508
0.69922
0.69531
0.71484
0.75
0.76953
0.77539
0.75391
0.75391
0.75977
0.7793
0.79492
0.80469
0.79883
0.79883
0.79492
0.78906
0.78516
0.78516
0.7793
0.7793
0.7793
0.71484
0.51563
0.25586
0.16016
0.42578
0.88477
1.1895
1.2852
1.2637
1.1895
1.1191
1.0801
1.0391
0.95898
0.84375
0.75
0.69922
0.68945
0.67578
0.66992
0.66016
0.66016
0.65039
0.64453
0.62891
0.61914
0.60547
0.58398
0.56445
0.54492
0.51953
0.49414
0.4707
0.45508
0.43945
0.43945
0.44922
0.46484
0.49414
0.52539
0.56445
0.59961
0.64063
0.67969
0.71484
0.74023
0.75977
0.76953
0.7793
0.78516
0.78516
0.78906
0.7793
0.77539
0.76953
0.76563
0.75977
0.75391
0.75391
0.75391
0.75391
0.75391
0.75977
0.76563
0.76953
0.77539
0.7793
0.78516
0.78516
0.78516
0.78516
0.78516
0.78516
0.78516
0.78516
0.78516
0.78516
0.78516
0.78516
0.78516
0.78516
0.78516
0.7793
0.7793
0.7793
0.7793
0.77539
0.75977
0.74023
0.71484
0.69922
0.68945
0.68945
0.71484
0.75391
0.76563
0.75977
0.74414
0.74414
0.75977
0.77539
0.78906
0.78906
0.78516
0.7793
0.7793
0.77539
0.7793
0.77539
0.76953
0.76953
0.76563
0.68945
0.48047
0.23047
0.16602
0.49414
0.94922
1.209
1.2695
1.2344
1.1641
1.0996
1.0645
1.0254
0.94531
0.83008
0.73438
0.69531
0.67969
0.66992
0.66406
0.6543
0.65039
0.64063
0.63477
0.62891
0.61523
0.59961
0.58398
0.56445
0.53906
0.51563
0.49023
0.4707
0.45508
0.44922
0.44922
0.45508
0.47461
0.50586
0.53906
0.57422
0.61523
0.65039
0.68555
0.7207
0.74414
0.75977
0.77539
0.7793
0.78516
0.78906
0.78516
0.7793
0.77539
0.76563
0.75977
0.75391
0.75391
0.75391
0.75391
0.75391
0.75391
0.75977
0.76563
0.76563
0.76953
0.7793
0.7793
0.7793
0.7793
0.78516
0.78516
0.78906
0.78906
0.78906
0.79492
0.78906
0.78906
0.78516
0.78516
0.7793
0.7793
0.7793
0.78516
0.77539
0.75977
0.73438
0.71484
0.70508
0.69531
0.69922
0.74023
0.76563
0.77539
0.76563
0.75977
0.76563
0.77539
0.78906
0.80469
0.80469
0.79883
0.79883
0.79492
0.79492
0.78906
0.78906
0.78516
0.78516
0.76953
0.6543
0.4043
0.18555
0.16602
0.63477
1.0645
1.2598
1.2891
1.2344
1.1602
1.1035
1.0645
1.0098
0.9043
0.79492
0.72461
0.69531
0.67969
0.66992
0.66016
0.6543
0.65039
0.64063
0.62891
0.61914
0.60938
0.5957
0.57422
0.55469
0.52539
0.5
0.47461
0.45508
0.43945
0.42969
0.42969
0.44531
0.4707
0.5
0.53516
0.57422
0.61523
0.6543
0.68945
0.7207
0.74023
0.75977
0.76953
0.77539
0.7793
0.78516
0.78516
0.7793
0.76953
0.76953
0.76563
0.75391
0.75391
0.75391
0.75391
0.75391
0.75977
0.76563
0.76953
0.77539
0.7793
0.78516
0.78906
0.78906
0.78906
0.79492
0.79492
0.78906
0.78906
0.78906
0.78906
0.78906
0.78906
0.78906
0.78906
0.78516
0.78516
0.78516
0.7793
0.7793
0.76953
0.75391
0.73438
0.71484
0.69922
0.69531
0.70898
0.74414
0.76953
0.77539
0.76563
0.75977
0.76563
0.77539
0.78906
0.79883
0.79883
0.79883
0.79492
0.79492
0.78906
0.78906
0.78516
0.78516
0.78516
0.75
0.5957
0.33594
0.16602
0.32031
0.75977
1.1289
1.2637
1.2793
1.2051
1.1348
1.084
1.0488
0.99023
0.87891
0.77539
0.71484
0.68945
0.67969
0.66992
0.66016
0.6543
0.65039
0.64063
0.62891
0.61914
0.60547
0.58398
0.56445
0.54492
0.51953
0.49414
0.47461
0.45508
0.43945
0.43945
0.43945
0.45508
0.47461
0.50977
0.54492
0.58008
0.61914
0.66016
0.69531
0.72461
0.74414
0.75977
0.76953
0.77539
0.7793
0.7793
0.76953
0.76563
0.75977
0.75391
0.75
0.74414
0.74023
0.74023
0.74023
0.74414
0.75
0.75977
0.76563
0.76563
0.76563
0.76563
0.76953
0.76953
0.77539
0.7793
0.7793
0.7793
0.7793
0.7793
0.7793
0.7793
0.7793
0.7793
0.77539
0.77539
0.77539
0.77539
0.76953
0.76953
0.76953
0.76563
0.74414
0.7207
0.69922
0.68945
0.67969
0.69531
0.73438
0.75391
0.75977
0.74414
0.74023
0.74414
0.75977
0.7793
0.78906
0.78516
0.78516
0.78516
0.7793
0.7793
0.7793
0.77539
0.76953
0.76953
0.74414
0.5957
0.33594
0.16602
0.31445
0.75977
1.1289
1.2637
1.2734
1.1992
1.1289
1.0801
1.0449
0.98438
0.87891
0.77539
0.70898
0.68945
0.67578
0.66406
0.66016
0.6543
0.64453
0.64063
0.63477
0.625
0.60547
0.58984
0.57422
0.55469
0.5293
0.50977
0.48438
0.46484
0.45508
0.45508
0.45508
0.46484
0.49023
0.51953
0.55469
0.58984
0.625
0.66406
0.69531
0.72461
0.74414
0.75977
0.76953
0.77539
0.7793
0.77539
0.77539
0.76953
0.76953
0.75977
0.75391
0.75
0.75
0.75
0.75
0.75
0.75391
0.75977
0.76563
0.76953
0.76953
0.7793
0.78516
0.78516
0.78516
0.78906
0.78906
0.78906
0.78906
0.78906
0.78906
0.78906
0.78516
0.78516
0.78516
0.78516
0.78516
0.78516
0.78516
0.78516
0.7793
0.76953
0.75977
0.73438
0.71484
0.70508
0.69531
0.69531
0.72461
0.75977
0.76953
0.75977
0.75391
0.75391
0.76563
0.7793
0.79492
0.79883
0.78906
0.78906
0.78906
0.78906
0.78516
0.78516
0.7793
0.78516
0.76953
0.67578
0.43555
0.19531
0.16016
0.57031
1.0039
1.2285
1.2734
1.2344
1.1602
1.0996
1.0645
1.0137
0.91992
0.81055
0.73047
0.69531
0.67969
0.66992
0.66016
0.6543
0.65039
0.64063
0.63477
0.625
0.60938
0.5957
0.58008
0.56055
0.53906
0.50977
0.48438
0.46484
0.44922
0.43945
0.44531
0.45508
0.48047
0.50977
0.53516
0.57031
0.60547
0.64453
0.67969
0.70898
0.73438
0.75391
0.76953
0.77539
0.7793
0.7793
0.7793
0.77539
0.76953
0.76563
0.75977
0.75391
0.75391
0.75
0.75
0.75
0.75391
0.75391
0.76563
0.76953
0.77539
0.7793
0.7793
0.78516
0.78906
0.78516
0.78516
0.78906
0.78906
0.78906
0.78906
0.78906
0.78516
0.78516
0.78516
0.78516
0.78516
0.78516
0.7793
0.7793
0.7793
0.77539
0.76953
0.75977
0.74023
0.71484
0.69922
0.68945
0.68945
0.71484
0.75
0.76563
0.75977
0.75
0.75
0.75977
0.77539
0.78906
0.78906
0.78906
0.78906
0.78516
0.78516
0.7793
0.7793
0.77539
0.77539
0.76563
0.68945
0.46484
0.21484
0.16016
0.51563
0.96484
1.2148
1.2695
1.2344
1.1602
1.0996
1.0645
1.0293
0.94531
0.83008
0.73438
0.69531
0.67578
0.66992
0.66016
0.6543
0.65039
0.64453
0.63477
0.625
0.60938
0.59961
0.58008
0.56055
0.53906
0.51563
0.49023
0.46484
0.44922
0.43945
0.43945
0.44922
0.4707
0.5
0.5293
0.56445
0.60547
0.64453
0.67578
0.70898
0.73438
0.75391
0.76563
0.76953
0.7793
0.78516
0.7793
0.77539
0.76953
0.75977
0.75391
0.75391
0.75
0.75
0.75
0.75
0.75391
0.75391
0.75977
0.76563
0.76953
0.77539
0.7793
0.78516
0.78516
0.78516
0.78906
0.78516
0.78516
0.78516
0.78516
0.78906
0.78906
0.78516
0.78906
0.78906
0.78516
0.78516
0.78516
0.7793
0.7793
0.76563
0.74414
0.7207
0.70508
0.69531
0.68945
0.71484
0.75391
0.76953
0.77539
0.75977
0.75391
0.76563
0.7793
0.79883
0.80469
0.79883
0.79883
0.79883
0.79492
0.78906
0.78906
0.78516
0.78516
0.78516
0.73047
0.53516
0.26953
0.16602
0.41602
0.87891
1.1992
1.2949
1.2734
1.1992
1.125
1.084
1.0449
0.95898
0.83984
0.75
0.70508
0.68945
0.67578
0.66992
0.66016
0.6543
0.65039
0.64063
0.63477
0.61914
0.60547
0.58398
0.56445
0.53906
0.51563
0.49023
0.46484
0.44922
0.43945
0.43945
0.43945
0.46094
0.48438
0.51953
0.55469
0.5957
0.63477
0.67578
0.70508
0.73047
0.75
0.76563
0.77539
0.7793
0.7793
0.7793
0.7793
0.77539
0.76563
0.75977
0.75391
0.75391
0.75391
0.75977
0.75977
0.76563
0.76953
0.77539
0.7793
0.78516
0.78516
0.78516
0.78906
0.78906
0.79492
0.79492
0.79492
0.79492
0.78906
0.78906
0.78906
0.78906
0.78906
0.78906
0.78906
0.78906
0.78906
0.78906
0.78906
0.78906
0.78516
0.77539
0.75391
0.73047
0.71484
0.70508
0.69922
0.7207
0.75391
0.77539
0.7793
0.75977
0.75977
0.76563
0.7793
0.79492
0.79883
0.79883
0.79883
0.79492
0.79492
0.78906
0.78906
0.78516
0.78516
0.78516
0.73438
0.54492
0.2793
0.16992
0.41602
0.86914
1.1738
1.2637
1.2695
1.1836
1.1152
1.0742
1.0391
0.96484
0.85547
0.75391
0.70508
0.68555
0.67578
0.66406
0.66016
0.65039
0.64453
0.63477
0.625
0.60938
0.5957
0.58008
0.56055
0.53906
0.51563
0.49023
0.46094
0.44922
0.43945
0.43555
0.43555
0.45508
0.48047
0.50977
0.54492
0.58398
0.61914
0.6543
0.68945
0.71484
0.74023
0.75391
0.75977
0.76563
0.76953
0.76953
0.76563
0.75977
0.75
0.74023
0.73438
0.73047
0.73047
0.73438
0.73438
0.74023
0.74023
0.74414
0.75391
0.75977
0.76563
0.76953
0.76953
0.76953
0.76953
0.76953
0.77539
0.76953
0.76953
0.77539
0.77539
0.7793
0.77539
0.76953
0.76953
0.76953
0.76953
0.76953
0.76953
0.76953
0.76563
0.76563
0.75977
0.74023
0.71484
0.69922
0.68945
0.67969
0.69922
0.73438
0.75977
0.76563
0.74414
0.74414
0.75391
0.76953
0.78516
0.79492
0.78906
0.78906
0.78906
0.78906
0.78906
0.78906
0.78516
0.78516
0.78516
0.74414
0.58008
0.31445
0.16602
0.35938
0.81445
1.1602
1.2695
1.2793
1.1934
1.125
1.0801
1.0449
0.97461
0.85938
0.75977
0.70898
0.68555
0.67578
0.66406
0.66016
0.6543
0.65039
0.64063
0.62891
0.61523
0.60547
0.58984
0.57031
0.55078
0.52539
0.5
0.48047
0.46094
0.44922
0.44531
0.44922
0.46094
0.49023
0.51563
0.55078
0.58984
0.625
0.66016
0.69531
0.7207
0.74023
0.75977
0.76953
0.77539
0.77539
0.76953
0.76953
0.76953
0.76953
0.76563
0.75977
0.75391
0.75391
0.75391
0.75391
0.75391
0.76563
0.76563
0.76953
0.77539
0.7793
0.78516
0.78516
0.78906
0.79492
0.79492
0.79883
0.79883
0.79883
0.79883
0.79492
0.79883
0.79492
0.78906
0.78906
0.78906
0.78516
0.78516
0.78906
0.78516
0.78516
0.78516
0.7793
0.76563
0.74414
0.7207
0.71484
0.69922
0.69922
0.73047
0.75977
0.7793
0.76563
0.75391
0.75391
0.76563
0.7793
0.79883
0.79883
0.78906
0.78906
0.78906
0.78516
0.78516
0.78516
0.7793
0.7793
0.78516
0.67969
0.44922
0.21094
0.16016
0.53906
0.98438
1.2188
1.2734
1.2344
1.1641
1.1035
1.0703
1.0254
0.92969
0.82031
0.73438
0.69922
0.68555
0.67578
0.66406
0.66016
0.65039
0.64453
0.63477
0.625
0.61523
0.59961
0.58398
0.56445
0.53906
0.51563
0.49023
0.4707
0.45508
0.44922
0.44531
0.45508
0.47461
0.5
0.53516
0.57031
0.60547
0.64453
0.67969
0.71484
0.73438
0.75391
0.76563
0.76953
0.7793
0.7793
0.7793
0.77539
0.76563
0.75977
0.75391
0.75391
0.75
0.75
0.75391
0.75391
0.75391
0.75977
0.76563
0.76953
0.7793
0.7793
0.78516
0.78516
0.78906
0.78906
0.78906
0.78906
0.78906
0.78906
0.78906
0.78516
0.78516
0.78516
0.78516
0.78516
0.78516
0.78516
0.78516
0.7793
0.7793
0.76953
0.75
0.7207
0.70508
0.69922
0.69531
0.70508
0.74414
0.76563
0.76953
0.75391
0.75391
0.75977
0.7793
0.79492
0.79883
0.79492
0.79492
0.78906
0.78906
0.78516
0.78516
0.7793
0.7793
0.7793
0.74023
0.57422
0.31445
0.17969
0.375
0.82031
1.1602
1.2695
1.2793
1.1895
1.1191
1.0801
1.0449
0.98047
0.875
0.76953
0.70898
0.67969
0.66992
0.66016
0.65039
0.64453
0.63477
0.62891
0.625
0.61523
0.60547
0.58984
0.56445
0.54492
0.51953
0.5
0.47461
0.45508
0.44922
0.44531
0.44922
0.46484
0.49023
0.51953
0.55469
0.58984
0.625
0.66016
0.69531
0.7207
0.74023
0.75977
0.76563
0.76953
0.77539
0.77539
0.76953
0.76563
0.75977
0.75391
0.75391
0.75391
0.75391
0.75391
0.75391
0.75391
0.75977
0.76563
0.76953
0.77539
0.7793
0.78516
0.78906
0.78906
0.79492
0.79492
0.79883
0.79883
0.79492
0.78906
0.78906
0.78906
0.78516
0.78516
0.78516
0.78516
0.78516
0.78516
0.7793
0.76563
0.74414
0.7207
0.70508
0.69922
0.69922
0.72461
0.75977
0.7793
0.76953
0.75977
0.75977
0.76953
0.78516
0.79883
0.80469
0.79883
0.79883
0.79492
0.78906
0.78906
0.78516
0.78516
0.78516
0.78516
0.72461
0.5293
0.26953
0.16992
0.42969
0.88867
1.1992
1.2852
1.2598
1.1895
1.125
1.084
1.0391
0.95508
0.83984
0.74414
0.69922
0.67969
0.66992
0.66016
0.6543
0.65039
0.64063
0.62891
0.61523
0.60547
0.58984
0.57422
0.56055
0.53516
0.50977
0.48438
0.46094
0.44531
0.43555
0.43555
0.43945
0.45508
0.48047
0.51563
0.55078
0.58984
0.62891
0.66992
0.69922
0.73047
0.74414
0.75977
0.76563
0.76953
0.77539
0.77539
0.76953
0.76563
0.75977
0.75391
0.75391
0.75
0.75
0.75
0.75391
0.75977
0.76563
0.76563
0.76953
0.7793
0.78516
0.78906
0.78906
0.79492
0.79492
0.78906
0.79492
0.79492
0.79492
0.78906
0.78906
0.78906
0.78906
0.78906
0.78906
0.78906
0.78516
0.78516
0.7793
0.76563
0.74414
0.7207
0.70898
0.69922
0.69922
0.72461
0.75977
0.77539
0.76563
0.75977
0.75977
0.76953
0.78516
0.79492
0.79883
0.79883
0.79492
0.79492
0.78906
0.78516
0.78516
0.78516
0.78516
0.7793
0.70898
0.49414
0.24609
0.17969
0.49414
0.94531
1.2051
1.2695
1.2441
1.1699
1.1094
1.0703
1.0293
0.94922
0.83398
0.74414
0.69922
0.67969
0.66992
0.66016
0.6543
0.64453
0.63477
0.62891
0.61914
0.60938
0.5957
0.58008
0.56055
0.53516
0.50977
0.49023
0.46484
0.44531
0.43555
0.43555
0.44531
0.46094
0.49023
0.52539
0.56055
0.5957
0.63477
0.67578
0.70508
0.73047
0.75
0.76563
0.76953
0.77539
0.7793
0.77539
0.76953
0.76563
0.75977
0.75391
0.74414
0.74023
0.74023
0.74414
0.74414
0.75391
0.75391
0.75977
0.76563
0.76563
0.76953
0.7793
0.7793
0.7793
0.7793
0.7793
0.7793
0.78516
0.78516
0.78516
0.78516
0.7793
0.7793
0.7793
0.7793
0.7793
0.77539
0.76953
0.76953
0.77539
0.76953
0.75391
0.73047
0.71484
0.69922
0.68945
0.69531
0.72461
0.75977
0.77539
0.75977
0.75391
0.75977
0.76953
0.78906
0.79883
0.79883
0.79883
0.79492
0.78906
0.78906
0.78906
0.78516
0.78516
0.7793
0.76563
0.66992
0.42969
0.20117
0.16992
0.59961
1.0293
1.2402
1.2793
1.2285
1.1543
1.0996
1.0586
1.0098
0.91016
0.79492
0.7207
0.68945
0.67578
0.66992
0.66016
0.6543
0.65039
0.64063
0.62891
0.61914
0.60547
0.58984
0.57422
0.56055
0.53516
0.51563
0.49023
0.46484
0.44922
0.43945
0.43945
0.45508
0.47461
0.5
0.53516
0.57031
0.60547
0.64453
0.68555
0.70898
0.73438
0.75
0.76563
0.76953
0.7793
0.7793
0.77539
0.76953
0.76563
0.76563
0.75977
0.75
0.74414
0.74414
0.74414
0.75
0.75391
0.75977
0.76563
0.76953
0.76953
0.77539
0.7793
0.78516
0.78906
0.78906
0.78906
0.78906
0.78906
0.78906
0.79492
0.79492
0.78906
0.78906
0.78906
0.78906
0.79492
0.79492
0.79492
0.78906
0.78906
0.78516
0.76953
0.75391
0.73047
0.71484
0.70508
0.69922
0.71484
0.75
0.76953
0.76563
0.75391
0.75391
0.75977
0.77539
0.78906
0.79883
0.79492
0.78906
0.78906
0.78516
0.78516
0.7793
0.7793
0.7793
0.77539
0.72461
0.53906
0.27539
0.15625
0.39063
0.84961
1.1699
1.2695
1.2539
1.1836
1.1152
1.0742
1.0391
0.96484
0.84961
0.75391
0.69922
0.67969
0.66992
0.66016
0.6543
0.65039
0.64063
0.62891
0.61523
0.60547
0.58984
0.57031
0.55078
0.5293
0.50977
0.49023
0.46484
0.44922
0.43555
0.43555
0.43945
0.45508
0.48047
0.50977
0.54492
0.58984
0.62891
0.66406
0.69531
0.7207
0.74023
0.75977
0.76563
0.77539
0.77539
0.76953
0.76953
0.76953
0.76563
0.75977
0.75391
0.75
0.74414
0.74414
0.75
0.75391
0.75977
0.76563
0.76953
0.77539
0.7793
0.7793
0.78516
0.78516
0.78516
0.78906
0.78906
0.78906
0.78906
0.78516
0.78516
0.78516
0.78516
0.78516
0.78516
0.78516
0.7793
0.7793
0.7793
0.77539
0.76953
0.75977
0.73438
0.71484
0.69922
0.68945
0.68945
0.7207
0.75391
0.76563
0.75391
0.74414
0.74414
0.75977
0.7793
0.78906
0.78906
0.78906
0.78516
0.78516
0.7793
0.7793
0.7793
0.77539
0.77539
0.76953
0.69922
0.48047
0.23438
0.17969
0.52539
0.97461
1.2246
1.2793
1.2402
1.1641
1.0996
1.0645
1.0254
0.93555
0.82422
0.73438
0.69531
0.67969
0.66992
0.66016
0.6543
0.65039
0.64063
0.62891
0.61914
0.60938
0.5957
0.58008
0.56055
0.53906
0.51563
0.49023
0.46484
0.44922
0.43945
0.43945
0.44531
0.46094
0.49023
0.51953
0.56055
0.5957
0.63477
0.66992
0.69922
0.7207
0.74023
0.75977
0.76563
0.76953
0.77539
0.76953
0.76953
0.76563
0.76563
0.75977
0.75391
0.75391
0.75391
0.75391
0.75391
0.75977
0.76563
0.76563
0.76953
0.77539
0.7793
0.78516
0.78906
0.78906
0.78906
0.78906
0.78906
0.78906
0.78906
0.78906
0.78906
0.78516
0.78516
0.78516
0.78516
0.78516
0.78516
0.78516
0.78516
0.78516
0.7793
0.76953
0.75
0.72461
0.71484
0.69922
0.69531
0.7207
0.75391
0.77539
0.76953
0.75977
0.75391
0.76563
0.7793
0.79492
0.79883
0.79492
0.78906
0.78906
0.78906
0.78516
0.78516
0.78516
0.78516
0.7793
0.7207
0.51953
0.25977
0.16992
0.43555
0.88867
1.1934
1.2852
1.2637
1.1895
1.1191
1.0801
1.0391
0.95898
0.84375
0.75
0.69922
0.67969
0.66992
0.66016
0.6543
0.65039
0.64453
0.63477
0.625
0.61523
0.5957
0.58008
0.56055
0.53516
0.51563
0.49023
0.4707
0.44922
0.43945
0.43555
0.43945
0.46094
0.48438
0.51953
0.55469
0.58984
0.63477
0.66992
0.69922
0.72461
0.74414
0.75977
0.76953
0.77539
0.7793
0.7793
0.7793
0.76953
0.76563
0.75977
0.75391
0.75
0.75
0.75
0.75391
0.75977
0.76563
0.76563
0.76953
0.77539
0.78516
0.78516
0.78906
0.78906
0.79492
0.79492
0.78906
0.79492
0.79492
0.78906
0.78906
0.78906
0.78906
0.78906
0.78906
0.78516
0.78516
0.78516
0.7793
0.7793
0.77539
0.75977
0.73438
0.70898
0.69922
0.68945
0.68555
0.70898
0.75
0.76953
0.76563
0.75391
0.75
0.76563
0.7793
0.78906
0.79883
0.79492
0.78906
0.78906
0.78906
0.78516
0.7793
0.7793
0.7793
0.77539
0.70898
0.50977
0.25977
0.18945
0.48047
0.92969
1.2051
1.2734
1.2441
1.1699
1.1035
1.0645
1.0293
0.94922
0.83398
0.73438
0.68945
0.67578
0.66406
0.6543
0.65039
0.64453
0.64063
0.62891
0.61914
0.60938
0.5957
0.58008
0.56055
0.53516
0.51563
0.49023
0.4707
0.44922
0.43945
0.43945
0.44922
0.46484
0.49023
0.51953
0.56055
0.5957
0.62891
0.66406
0.69531
0.7207
0.74023
0.75391
0.75977
0.76563
0.76953
0.76953
0.76953
0.76563
0.75977
0.75391
0.75391
0.75
0.74414
0.75
0.75391
0.75391
0.75977
0.76563
0.76953
0.76953
0.77539
0.7793
0.78516
0.78516
0.78906
0.78906
0.78906
0.78906
0.78906
0.78906
0.78906
0.78906
0.78906
0.78906
0.78906
0.78906
0.78906
0.78906
0.78516
0.78516
0.78516
0.77539
0.75391
0.73047
0.71484
0.70508
0.69922
0.70898
0.74414
0.76953
0.77539
0.75977
0.75977
0.76563
0.7793
0.79492
0.80469
0.79883
0.79883
0.79492
0.78906
0.78906
0.78906
0.78906
0.78516
0.78516
0.74414
0.58984
0.33008
0.16602
0.33008
0.77539
1.1445
1.2734
1.2852
1.209
1.1387
1.0898
1.0488
0.98047
0.86523
0.76563
0.70898
0.68555
0.66992
0.66406
0.66016
0.6543
0.64453
0.64063
0.62891
0.61523
0.60547
0.58984
0.57422
0.55078
0.52539
0.5
0.47461
0.45508
0.43945
0.43555
0.43945
0.45508
0.48047
0.51563
0.54492
0.58398
0.61914
0.6543
0.69531
0.72461
0.74414
0.75977
0.76563
0.76953
0.77539
0.7793
0.76953
0.76953
0.76563
0.75977
0.75977
0.75391
0.75391
0.75391
0.75391
0.75391
0.75977
0.76563
0.76953
0.7793
0.7793
0.78516
0.78906
0.79492
0.79492
0.79492
0.79883
0.79492
0.79492
0.79492
0.79492
0.79492
0.78906
0.79492
0.79492
0.79492
0.79492
0.78906
0.78906
0.78516
0.78516
0.76953
0.75
0.72461
0.71484
0.70508
0.70508
0.73047
0.76563
0.7793
0.76953
0.75977
0.76563
0.7793
0.78906
0.80469
0.80469
0.80469
0.79883
0.79883
0.79883
0.79492
0.78906
0.78906
0.78906
0.7793
0.70508
0.48047
0.23047
0.16992
0.52539
0.97461
1.2246
1.2793
1.2402
1.1641
1.1094
1.0703
1.0293
0.93945
0.82422
0.73438
0.69531
0.67578
0.66406
0.66016
0.6543
0.6543
0.64453
0.63477
0.625
0.61523
0.59961
0.58398
0.56445
0.53906
0.51563
0.49023
0.4707
0.44922
0.43945
0.43945
0.44922
0.46094
0.49023
0.52539
0.56445
0.59961
0.64063
0.67969
0.70898
0.73438
0.75
0.76563
0.76953
0.7793
0.7793
0.7793
0.77539
0.76953
0.76563
0.75977
0.75391
0.75391
0.74414
0.74414
0.74414
0.75
0.75391
0.75977
0.76563
0.76953
0.77539
0.7793
0.7793
0.7793
0.7793
0.7793
0.78516
0.78516
0.78516
0.7793
0.78516
0.78516
0.78516
0.78516
0.78516
0.78516
0.78516
0.78516
0.78516
0.78516
0.77539
0.75977
0.73438
0.71484
0.70508
0.69922
0.70898
0.74414
0.77539
0.7793
0.75977
0.75391
0.75977
0.77539
0.78906
0.79883
0.79883
0.79492
0.78906
0.78906
0.78906
0.78516
0.78516
0.7793
0.78516
0.75977
0.625
0.37109
0.16602
0.26563
0.68945
1.0996
1.2637
1.2852
1.2148
1.1387
1.0898
1.0547
0.99414
0.88477
0.77539
0.70898
0.68945
0.67578
0.66406
0.66016
0.6543
0.65039
0.64063
0.62891
0.61914
0.60938
0.5957
0.58008
0.55469
0.5293
0.50586
0.48047
0.46094
0.44922
0.43945
0.43945
0.45508
0.48047
0.50977
0.54492
0.58008
0.61914
0.66016
0.69531
0.7207
0.74414
0.75977
0.77539
0.78516
0.78906
0.78516
0.78516
0.7793
0.77539
0.76563
0.76563
0.75977
0.75391
0.75391
0.75391
0.75977
0.75977
0.76563
0.76953
0.7793
0.7793
0.78516
0.78906
0.78906
0.79492
0.79492
0.79492
0.79492
0.79492
0.79492
0.78906
0.78906
0.78906
0.78906
0.78906
0.78906
0.78906
0.78516
0.78516
0.78516
0.76563
0.74023
0.7207
0.71484
0.70508
0.70898
0.74023
0.76953
0.77539
0.75977
0.75391
0.75977
0.77539
0.79492
0.80469
0.80469
0.79883
0.79883
0.79883
0.79492
0.78906
0.78906
0.78516
0.78516
0.77539
0.66406
0.41992
0.20508
0.17969
0.63477
1.0547
1.25
1.2852
1.2285
1.1543
1.0996
1.0645
1.0137
0.91406
0.79883
0.72461
0.69531
0.67969
0.67578
0.66992
0.66016
0.6543
0.64453
0.63477
0.625
0.61523
0.5957
0.58008
0.55469
0.53516
0.50977
0.48047
0.46094
0.44531
0.43555
0.43555
0.44922
0.47461
0.5
0.53516
0.57031
0.60938
0.65039
0.68555
0.71484
0.73438
0.75391
0.76563
0.77539
0.7793
0.7793
0.77539
0.76953
0.76563
0.75977
0.75391
0.75391
0.75391
0.75
0.75
0.75
0.75391
0.75391
0.75977
0.76953
0.77539
0.7793
0.7793
0.78516
0.78516
0.78516
0.78516
0.78516
0.78516
0.78906
0.78516
0.78516
0.78516
0.78516
0.7793
0.7793
0.78516
0.78516
0.7793
0.7793
0.76563
0.74023
0.7207
0.70508
0.69531
0.69531
0.72461
0.75977
0.77539
0.76563
0.75977
0.75977
0.77539
0.78516
0.79883
0.80469
0.79883
0.79883
0.79492
0.79492
0.79492
0.79492
0.78906
0.78906
0.7793
0.70508
0.48047
0.23438
0.17969
0.55469
0.99414
1.2285
1.2852
1.2402
1.1641
1.1035
1.0703
1.0195
0.92969
0.81445
0.73047
0.69531
0.68555
0.67578
0.66992
0.66016
0.6543
0.65039
0.63477
0.625
0.61523
0.59961
0.58398
0.57031
0.54492
0.51953
0.49414
0.47461
0.46094
0.44922
0.44922
0.45508
0.47461
0.5
0.5293
0.57031
0.60938
0.64453
0.68555
0.71484
0.74023
0.75391
0.76563
0.76953
0.7793
0.78516
0.7793
0.7793
0.77539
0.76953
0.75977
0.75391
0.75
0.75
0.75391
0.75391
0.75391
0.75977
0.76563
0.76563
0.76953
0.7793
0.78516
0.78516
0.78516
0.78516
0.78906
0.78906
0.78906
0.78906
0.78906
0.78906
0.78906
0.78516
0.78516
0.78906
0.78516
0.78516
0.78516
0.7793
0.7793
0.76953
0.75391
0.73438
0.7207
0.70508
0.69922
0.70898
0.74414
0.77539
0.7793
0.76563
0.75977
0.75977
0.77539
0.78906
0.79883
0.79492
0.79492
0.79492
0.78906
0.78906
0.78516
0.78516
0.7793
0.7793
0.75
0.60547
0.33984
0.16602
0.31055
0.75
1.125
1.2637
1.2734
1.2051
1.1348
1.084
1.0488
0.99023
0.87891
0.76953
0.70898
0.68555
0.67578
0.66992
0.66016
0.6543
0.64453
0.64063
0.62891
0.61914
0.60938
0.58984
0.57422
0.55469
0.52539
0.5
0.47461
0.45508
0.43945
0.43555
0.43945
0.45508
0.48047
0.50977
0.53906
0.57422
0.61523
0.65039
0.68555
0.71484
0.73438
0.75
0.75977
0.76563
0.76953
0.77539
0.76953
0.76953
0.76563
0.75977
0.75391
0.74414
0.74023
0.74023
0.74023
0.74414
0.75391
0.75977
0.76563
0.76953
0.77539
0.77539
0.7793
0.7793
0.78516
0.78516
0.7793
0.7793
0.7793
0.7793
0.7793
0.7793
0.7793
0.77539
0.7793
0.7793
0.7793
0.77539
0.76953
0.75391
0.72461
0.70508
0.69922
0.68555
0.67969
0.70508
0.75
0.7793
0.78516
0.76563
0.75977
0.76563
0.77539
0.78906
0.79492
0.78906
0.78906
0.78516
0.78516
0.7793
0.7793
0.7793
0.77539
0.7793
0.69922
0.48047
0.23438
0.17969
0.52539
0.96484
1.2148
1.2695
1.2344
1.1641
1.0996
1.0645
1.0254
0.94531
0.83008
0.73438
0.68945
0.66992
0.66016
0.6543
0.64453
0.64063
0.63477
0.625
0.61523
0.60547
0.58984
0.57422
0.55469
0.52539
0.5
0.47461
0.45508
0.43945
0.42969
0.42969
0.43945
0.46094
0.49023
0.51953
0.56055
0.59961
0.63477
0.66992
0.69922
0.73047
0.74414
0.75391
0.76563
0.76953
0.7793
0.7793
0.76953
0.76563
0.75977
0.75391
0.75
0.74414
0.74023
0.74023
0.74023
0.74414
0.75
0.75391
0.75977
0.76563
0.76953
0.76953
0.7793
0.7793
0.78516
0.78516
0.78906
0.79492
0.79492
0.79492
0.79492
0.78906
0.79492
0.79492
0.79492
0.79492
0.79883
0.79883
0.80469
0.81445
0.82422
0.81445
0.79492
0.77539
0.75977
0.74414
0.74414
0.76563
0.79492
0.80469
0.78906
0.7793
0.7793
0.78516
0.79883
0.81055
0.81445
0.79883
0.78516
0.77539
0.75977
0.74023
0.7207
0.69922
0.67969
0.66016
0.56055
0.32422
0.060547
-0.0097656
0.32031
0.78906
1.0703
1.1543
1.125
1.0547
0.99414
0.96484
0.92383
0.83984
0.73047
0.65039
0.625
0.61523
0.60938
0.60938
0.60938
0.60938
0.60938
0.60547
0.59961
0.58984
0.58398
0.56445
0.55078
0.5293
0.50977
0.48438
0.46484
0.44922
0.44531
0.44922
0.46094
0.48047
0.50977
0.54492
0.58398
0.61914
0.66016
0.69922
0.73438
0.75977
0.7793
0.79492
0.80469
0.81055
0.81055
0.81055
0.80469
0.79883
0.79492
0.78906
0.78516
0.7793
0.7793
0.7793
0.7793
0.78516
0.78906
0.79883
0.80469
0.80469
0.81055
0.81445
0.81445
0.82031
0.82031
0.82031
0.82031
0.82031
0.82422
0.82031
0.82031
0.82031
0.82031
0.81445
0.81445
0.81055
0.81055
0.81055
0.81055
0.80469
0.79883
0.7793
0.75391
0.74023
0.72461
0.71484
0.7207
0.75
0.78516
0.79492
0.7793
0.77539
0.7793
0.78906
0.80469
0.81445
0.82031
0.81055
0.81055
0.81055
0.81055
0.80469
0.80469
0.79883
0.79883
0.78516
0.66992
0.42578
0.21094
0.17578
0.63477
1.0547
1.2539
1.2852
1.2344
1.1641
1.1094
1.0703
1.0254
0.92969
0.81445
0.74023
0.69922
0.68945
0.67969
0.66992
0.66016
0.6543
0.65039
0.64063
0.625
0.60938
0.59961
0.58008
0.56055
0.53516
0.50586
0.48047
0.45508
0.43945
0.43555
0.43555
0.44531
0.46484
0.49414
0.5293
0.57031
0.61523
0.6543
0.68945
0.71484
0.73438
0.75391
0.76563
0.77539
0.7793
0.78516
0.78516
0.7793
0.76953
0.76563
0.75977
0.75391
0.75391
0.75
0.75
0.75
0.75391
0.75977
0.76563
0.76953
0.7793
0.7793
0.7793
0.78516
0.78906
0.78906
0.78906
0.78906
0.78906
0.78516
0.78516
0.78516
0.78516
0.78516
0.7793
0.7793
0.7793
0.7793
0.77539
0.77539
0.77539
0.76953
0.76563
0.75
0.72461
0.70508
0.69531
0.67969
0.67969
0.70898
0.75
0.76563
0.75977
0.74414
0.75
0.75977
0.7793
0.78906
0.78906
0.78906
0.78906
0.78516
0.78516
0.7793
0.7793
0.77539
0.7793
0.77539
0.68945
0.46094
0.2207
0.16992
0.56055
1.0039
1.2402
1.2891
1.2441
1.1699
1.1035
1.0703
1.0254
0.93945
0.82422
0.74414
0.69922
0.68555
0.67969
0.67578
0.66406
0.66016
0.65039
0.64063
0.63477
0.61914
0.60547
0.58984
0.57422
0.55078
0.51953
0.49414
0.47461
0.46094
0.44922
0.44922
0.45508
0.47461
0.5
0.53516
0.57031
0.60547
0.64453
0.67969
0.70898
0.73438
0.75391
0.76563
0.76953
0.77539
0.7793
0.78516
0.7793
0.7793
0.76953
0.76563
0.75977
0.75977
0.75391
0.75391
0.75391
0.75977
0.76563
0.76563
0.76953
0.77539
0.7793
0.7793
0.78516
0.78906
0.78906
0.79492
0.79492
0.79492
0.79492
0.79492
0.78906
0.78906
0.79492
0.79883
0.79883
0.80469
0.81055
0.81055
0.81445
0.81445
0.82031
0.80469
0.7793
0.75977
0.75
0.74023
0.74023
0.76563
0.79883
0.81055
0.80469
0.78906
0.78516
0.79492
0.81055
0.82422
0.82031
0.80469
0.79492
0.78516
0.7793
0.7793
0.7793
0.7793
0.7793
0.76953
0.69531
0.4707
0.21484
0.14063
0.43555
0.88867
1.1699
1.2402
1.209
1.1387
1.0801
1.0391
1
0.91016
0.79492
0.69922
0.6543
0.64063
0.62891
0.625
0.61523
0.60938
0.60547
0.5957
0.58984
0.58008
0.56445
0.55078
0.5293
0.50977
0.48438
0.46094
0.43945
0.41992
0.41602
0.41602
0.42969
0.44922
0.48047
0.50977
0.54492
0.58398
0.625
0.66406
0.69531
0.71484
0.73438
0.75391
0.75977
0.76563
0.76953
0.76953
0.76953
0.76563
0.76563
0.75977
0.75977
0.75391
0.75391
0.75391
0.75391
0.75977
0.76563
0.76953
0.77539
0.7793
0.78516
0.78516
0.78516
0.78516
0.78906
0.78906
0.78516
0.7793
0.7793
0.7793
0.7793
0.7793
0.7793
0.7793
0.77539
0.76953
0.76953
0.76953
0.76953
0.76953
0.76563
0.75
0.72461
0.70508
0.69531
0.67969
0.68555
0.7207
0.75391
0.76563
0.75391
0.74414
0.74414
0.75977
0.77539
0.78516
0.78516
0.78516
0.7793
0.77539
0.76953
0.76953
0.76953
0.76563
0.76563
0.75391
0.6543
0.41602
0.20117
0.16602
0.60938
1.0391
1.2441
1.2734
1.2246
1.1484
1.0938
1.0586
1.0137
0.92383
0.81055
0.73047
0.69531
0.67969
0.67578
0.66992
0.66406
0.66016
0.65039
0.64453
0.63477
0.61914
0.60547
0.58398
0.56055
0.53906
0.51563
0.49023
0.46484
0.44922
0.44531
0.43945
0.45508
0.47461
0.5
0.53516
0.56445
0.60547
0.64453
0.67578
0.70898
0.73047
0.74414
0.75977
0.76563
0.76953
0.77539
0.77539
0.76953
0.76953
0.76563
0.75977
0.75391
0.75391
0.75
0.75
0.75
0.75391
0.75977
0.76563
0.76953
0.7793
0.78516
0.78906
0.79492
0.79492
0.79492
0.79492
0.79492
0.79492
0.79492
0.79492
0.79492
0.78906
0.78906
0.78906
0.78906
0.78906
0.78906
0.78906
0.78906
0.78516
0.7793
0.75977
0.73438
0.7207
0.70508
0.69531
0.69922
0.74023
0.76563
0.77539
0.76563
0.75977
0.75977
0.76953
0.78516
0.79492
0.79883
0.78906
0.78906
0.78906
0.78906
0.78516
0.78516
0.7793
0.7793
0.75977
0.625
0.375
0.16016
0.15039
0.6543
1.0703
1.25
1.2734
1.2188
1.1445
1.0938
1.0586
1.0039
0.90039
0.78516
0.7207
0.68945
0.67578
0.66406
0.66016
0.6543
0.65039
0.64063
0.62891
0.61523
0.60547
0.58984
0.57031
0.55078
0.52539
0.5
0.47461
0.44922
0.43555
0.42578
0.42578
0.43555
0.46484
0.49414
0.52539
0.56445
0.60547
0.64453
0.67969
0.70898
0.73047
0.75
0.76563
0.76953
0.77539
0.77539
0.77539
0.77539
0.76953
0.76563
0.75977
0.75391
0.75391
0.75391
0.75391
0.75977
0.76563
0.76563
0.76953
0.76953
0.7793
0.78516
0.78516
0.78516
0.78516
0.78906
0.78906
0.78906
0.78906
0.78906
0.78906
0.78906
0.78516
0.78516
0.78516
0.78516
0.78516
0.78516
0.7793
0.7793
0.76953
0.75391
0.73047
0.71484
0.69922
0.68945
0.69922
0.74023
0.76563
0.76953
0.75977
0.75391
0.75977
0.76953
0.78516
0.79492
0.79883
0.78906
0.78906
0.78516
0.78516
0.78516
0.7793
0.7793
0.7793
0.75391
0.625
0.375
0.16602
0.15039
0.65039
1.0645
1.2441
1.2695
1.2188
1.1445
1.0938
1.0645
1.0098
0.9043
0.78906
0.71484
0.68555
0.66992
0.66016
0.6543
0.64453
0.64063
0.62891
0.61914
0.60938
0.5957
0.58008
0.56055
0.53906
0.51563
0.49414
0.4707
0.44531
0.42969
0.41992
0.41992
0.43555
0.45508
0.48438
0.52539
0.56445
0.60938
0.64453
0.67969
0.70898
0.73047
0.75
0.76563
0.76953
0.76953
0.77539
0.76953
0.76563
0.76563
0.75977
0.75391
0.74414
0.74414
0.74023
0.74414
0.74414
0.75
0.75391
0.75977
0.75977
0.76563
0.76953
0.76953
0.76953
0.76953
0.77539
0.7793
0.7793
0.7793
0.7793
0.7793
0.7793
0.7793
0.7793
0.7793
0.77539
0.77539
0.77539
0.77539
0.76953
0.75391
0.73438
0.71484
0.69922
0.69531
0.69531
0.73047
0.76563
0.7793
0.76563
0.75977
0.76563
0.77539
0.78906
0.80469
0.80469
0.80469
0.80469
0.79883
0.79883
0.79492
0.78906
0.78906
0.78906
0.77539
0.67969
0.43555
0.19531
0.16016
0.58984
1.0254
1.2441
1.2949
1.25
1.1699
1.1094
1.0703
1.0195
0.91992
0.81055
0.73047
0.69531
0.67969
0.66992
0.66406
0.66016
0.6543
0.64063
0.63477
0.625
0.60938
0.5957
0.58008
0.55469
0.52539
0.5
0.47461
0.45508
0.43555
0.42578
0.42578
0.43555
0.45508
0.48438
0.51953
0.56055
0.59961
0.64063
0.67578
0.70898
0.73047
0.75
0.75977
0.76953
0.77539
0.7793
0.7793
0.77539
0.76953
0.76563
0.75977
0.75977
0.75391
0.75391
0.75391
0.75391
0.75977
0.76563
0.76953
0.7793
0.78516
0.78516
0.78906
0.79883
0.79883
0.79883
0.79883
0.79883
0.79883
0.79492
0.78906
0.78906
0.78906
0.78906
0.78906
0.78906
0.79492
0.79492
0.79492
0.78906
0.7793
0.75977
0.74023
0.73047
0.7207
0.7207
0.75
0.7793
0.78516
0.76953
0.76563
0.76953
0.7793
0.79492
0.80469
0.81055
0.80469
0.79883
0.79883
0.79492
0.78906
0.78516
0.7793
0.7793
0.75977
0.66992
0.42969
0.18945
0.14063
0.53516
0.99023
1.2188
1.2734
1.2344
1.1602
1.1035
1.0645
1.0137
0.92383
0.81055
0.73047
0.68945
0.67578
0.66406
0.66016
0.6543
0.65039
0.64063
0.63477
0.625
0.60938
0.5957
0.57422
0.55469
0.5293
0.5
0.47461
0.45508
0.43555
0.42969
0.42969
0.43555
0.45508
0.48047
0.51953
0.55469
0.59961
0.64063
0.67578
0.70898
0.73047
0.75
0.75977
0.76953
0.7793
0.7793
0.7793
0.77539
0.76953
0.76563
0.75391
0.75
0.74414
0.74414
0.75
0.75
0.75391
0.75977
0.75977
0.76563
0.76563
0.76953
0.77539
0.7793
0.7793
0.7793
0.7793
0.7793
0.7793
0.7793
0.78516
0.7793
0.7793
0.7793
0.7793
0.7793
0.7793
0.7793
0.77539
0.76953
0.75977
0.73438
0.71484
0.69922
0.68945
0.68945
0.70898
0.75
0.76953
0.76563
0.75391
0.75391
0.76563
0.7793
0.79883
0.80469
0.79883
0.79492
0.79492
0.79492
0.78906
0.78516
0.7793
0.7793
0.78516
0.72461
0.5293
0.26953
0.16992
0.43555
0.89453
1.1992
1.2891
1.2637
1.1895
1.1191
1.0801
1.0352
0.95898
0.84375
0.75
0.69922
0.67969
0.66992
0.66406
0.6543
0.65039
0.65039
0.64063
0.62891
0.61523
0.60547
0.58008
0.55469
0.53516
0.50977
0.48438
0.46484
0.44922
0.43555
0.43555
0.43555
0.44922
0.47461
0.50977
0.54492
0.58398
0.61914
0.66016
0.69531
0.7207
0.73438
0.75391
0.75977
0.76563
0.76953
0.76953
0.76953
0.76953
0.76563
0.75977
0.75391
0.74414
0.74414
0.74414
0.75391
0.75977
0.75977
0.75977
0.76563
0.76953
0.7793
0.78516
0.78516
0.78516
0.78516
0.78906
0.78906
0.78516
0.76953
0.74414
0.73438
0.72461
0.70508
0.70898
0.74414
0.7793
0.79492
0.78906
0.78516
0.7793
0.78516
0.79492
0.81055
0.81445
0.81055
0.81055
0.81055
0.80469
0.79883
0.79492
0.79492
0.79883
0.79492
0.72461
0.52539
0.26953
0.19531
0.48047
0.93555
1.2246
1.2988
1.2734
1.2051
1.1387
1.0938
1.0449
0.95508
0.83398
0.74414
0.69922
0.67969
0.66992
0.66016
0.6543
0.65039
0.64063
0.63477
0.625
0.61523
0.5957
0.57422
0.55469
0.5293
0.5
0.4707
0.44531
0.42578
0.41602
0.41602
0.42578
0.44922
0.48438
0.51953
0.56445
0.60547
0.64453
0.68555
0.7207
0.74023
0.75977
0.77539
0.7793
0.78516
0.78516
0.78516
0.7793
0.7793
0.76953
0.76563
0.75977
0.75977
0.75977
0.75977
0.76563
0.76563
0.76953
0.77539
0.7793
0.7793
0.78516
0.78516
0.78906
0.78906
0.78906
0.78906
0.78906
0.78906
0.78906
0.78906
0.78906
0.78906
0.79492
0.78906
0.78906
0.78906
0.78906
0.78906
0.78906
0.78906
0.78516
0.78516
0.78516
0.78516
0.7793
0.7793
0.7793
0.76563
0.74414
0.7207
0.70898
0.69922
0.69531
0.70508
0.74414
0.77539
0.7793
0.75977
0.75391
0.75391
0.76563
0.7793
0.78516
0.78516
0.78516
0.7793
0.7793
0.7793
0.76953
0.76953
0.77539
0.76953
0.70508
0.49023
0.23438
0.16602
0.49414
0.94531
1.2051
1.2695
1.2441
1.1797
1.1191
1.0801
1.0391
0.95898
0.84375
0.74414
0.69531
0.67969
0.66992
0.66016
0.6543
0.65039
0.64063
0.62891
0.625
0.60938
0.5957
0.57422
0.55469
0.53516
0.50977
0.48438
0.4707
0.44922
0.43945
0.43555
0.43945
0.46094
0.48047
0.51563
0.54492
0.58398
0.625
0.66016
0.69531
0.7207
0.73438
0.75391
0.76563
0.76953
0.76953
0.76953
0.76953
0.76953
0.76563
0.75977
0.75391
0.75391
0.75391
0.75
0.75391
0.75391
0.75977
0.76563
0.76953
0.77539
0.7793
0.78516
0.78516
0.78516
0.78906
0.78906
0.78906
0.78906
0.78906
0.78906
0.78906
0.79492
0.79492
0.78906
0.78906
0.78906
0.78906
0.78906
0.78906
0.78906
0.78516
0.78516
0.78516
0.78516
0.78516
0.7793
0.75977
0.73438
0.7207
0.70898
0.70508
0.70508
0.73047
0.76953
0.78906
0.78516
0.76953
0.76563
0.76953
0.78516
0.79883
0.79883
0.79492
0.78906
0.78906
0.78906
0.78906
0.78906
0.78516
0.78516
0.76953
0.66992
0.42578
0.18945
0.15039
0.58984
1.0293
1.25
1.2949
1.25
1.1738
1.1191
1.0801
1.0254
0.92383
0.81055
0.73047
0.69922
0.68555
0.67578
0.66992
0.66016
0.6543
0.65039
0.64063
0.625
0.60938
0.5957
0.58008
0.56055
0.53516
0.50977
0.48047
0.45508
0.43945
0.42969
0.42578
0.43555
0.45508
0.48047
0.51953
0.55469
0.5957
0.63477
0.67578
0.70898
0.73438
0.75391
0.76563
0.77539
0.7793
0.7793
0.7793
0.7793
0.76953
0.76563
0.76563
0.75977
0.75391
0.75391
0.75391
0.75391
0.75391
0.75391
0.75977
0.76563
0.76953
0.77539
0.7793
0.7793
0.7793
0.78516
0.78516
0.7793
0.7793
0.7793
0.7793
0.7793
0.7793
0.7793
0.77539
0.76953
0.76953
0.76953
0.76953
0.76953
0.76563
0.75
0.73047
0.70508
0.69531
0.68555
0.68555
0.70898
0.74414
0.76563
0.75977
0.74414
0.74414
0.75391
0.76953
0.78516
0.78516
0.7793
0.7793
0.77539
0.77539
0.76953
0.76563
0.76563
0.76563
0.75977
0.68555
0.46094
0.21484
0.16016
0.51563
0.96484
1.209
1.2637
1.2285
1.1543
1.0938
1.0586
1.0254
0.93945
0.82031
0.72461
0.68555
0.67578
0.66016
0.6543
0.64453
0.64063
0.62891
0.625
0.61523
0.60547
0.58984
0.57422
0.54492
0.51953
0.49414
0.4707
0.44531
0.41992
0.41602
0.41016
0.41992
0.44531
0.47461
0.50977
0.54492
0.58984
0.63477
0.67578
0.70898
0.73438
0.75
0.76563
0.76953
0.7793
0.78516
0.78516
0.7793
0.7793
0.7793
0.76953
0.76563
0.75977
0.75977
0.75977
0.76563
0.76563
0.76953
0.76953
0.76953
0.7793
0.7793
0.78516
0.78516
0.78906
0.78906
0.79492
0.79883
0.79883
0.79883
0.79883
0.79883
0.79883
0.79883
0.79492
0.78906
0.78906
0.78906
0.78906
0.78516
0.78516
0.7793
0.76563
0.74414
0.72461
0.70898
0.69531
0.69531
0.72461
0.75977
0.7793
0.76953
0.75977
0.75977
0.76953
0.78516
0.79883
0.80469
0.79883
0.79883
0.79492
0.78906
0.78906
0.78906
0.78516
0.78516
0.77539
0.69531
0.4707
0.21484
0.16016
0.51953
0.97461
1.2344
1.2949
1.2539
1.1797
1.1191
1.084
1.0293
0.93555
0.81445
0.73047
0.68945
0.67578
0.66406
0.66016
0.6543
0.65039
0.64063
0.63477
0.625
0.60938
0.5957
0.57422
0.55469
0.5293
0.5
0.4707
0.44531
0.42578
0.41602
0.41016
0.41602
0.43945
0.4707
0.50586
0.54492
0.58984
0.63477
0.67578
0.70508
0.73047
0.75
0.76563
0.77539
0.7793
0.7793
0.7793
0.7793
0.77539
0.76953
0.76563
0.75977
0.75977
0.75391
0.75977
0.75977
0.75977
0.75977
0.75977
0.76563
0.76953
0.76953
0.77539
0.77539
0.7793
0.7793
0.7793
0.7793
0.7793
0.7793
0.7793
0.7793
0.7793
0.7793
0.7793
0.77539
0.77539
0.76953
0.76953
0.76953
0.76953
0.76563
0.75391
0.73047
0.70508
0.69531
0.68945
0.68945
0.71484
0.75391
0.76563
0.75977
0.75
0.75
0.75977
0.7793
0.78906
0.79492
0.78906
0.78516
0.78516
0.78516
0.78516
0.7793
0.7793
0.7793
0.76953
0.68555
0.46094
0.21484
0.16016
0.51953
0.96484
1.2188
1.2793
1.2402
1.1641
1.1035
1.0703
1.0254
0.93945
0.81445
0.72461
0.68945
0.67578
0.66016
0.6543
0.65039
0.64453
0.63477
0.62891
0.625
0.60938
0.5957
0.58008
0.55469
0.52539
0.5
0.47461
0.44922
0.42969
0.41602
0.41602
0.41992
0.44531
0.47461
0.50977
0.55078
0.58984
0.62891
0.66406
0.69922
0.72461
0.75
0.75977
0.76563
0.76953
0.7793
0.7793
0.76953
0.76953
0.76953
0.76563
0.75977
0.75391
0.75391
0.74414
0.74414
0.75
0.75391
0.75977
0.76563
0.76953
0.77539
0.7793
0.7793
0.7793
0.7793
0.78516
0.78516
0.7793
0.7793
0.78516
0.78516
0.78516
0.78516
0.78516
0.78516
0.7793
0.7793
0.7793
0.7793
0.7793
0.77539
0.76953
0.75977
0.74023
0.71484
0.70508
0.69531
0.69531
0.7207
0.75391
0.77539
0.76953
0.75977
0.76563
0.77539
0.78516
0.79883
0.79883
0.79492
0.78906
0.78906
0.78906
0.78516
0.78516
0.7793
0.7793
0.76563
0.67578
0.44531
0.21094
0.16016
0.57031
1.0195
1.25
1.2949
1.25
1.1699
1.1152
1.0742
1.0254
0.93555
0.82031
0.74023
0.69922
0.68945
0.67969
0.67578
0.66992
0.66406
0.6543
0.65039
0.64063
0.62891
0.60938
0.58984
0.57031
0.54492
0.51563
0.49023
0.46094
0.44531
0.43555
0.43555
0.44531
0.46484
0.49414
0.5293
0.57031
0.60938
0.65039
0.68945
0.7207
0.75
0.76563
0.7793
0.78516
0.78906
0.78906
0.78906
0.78906
0.78516
0.78516
0.7793
0.76953
0.76563
0.76563
0.76563
0.76563
0.76563
0.76953
0.76953
0.77539
0.7793
0.78516
0.78906
0.78906
0.79492
0.79492
0.79492
0.79492
0.79883
0.79883
0.79883
0.79883
0.79492
0.79492
0.79883
0.79883
0.79492
0.79883
0.79492
0.79492
0.78906
0.7793
0.75391
0.73438
0.71484
0.70508
0.69922
0.72461
0.76563
0.7793
0.77539
0.76563
0.76563
0.77539
0.79492
0.80469
0.81055
0.80469
0.80469
0.79883
0.79883
0.79883
0.79492
0.79492
0.79492
0.79883
0.7207
0.5
0.24609
0.17578
0.49023
0.94922
1.2246
1.2988
1.2695
1.1934
1.1348
1.0938
1.0488
0.96484
0.84961
0.75977
0.7207
0.69922
0.68945
0.67969
0.66992
0.66016
0.6543
0.64453
0.63477
0.61914
0.60547
0.58398
0.56445
0.53906
0.51563
0.48438
0.45508
0.42969
0.41992
0.41602
0.42578
0.44531
0.4707
0.50586
0.55078
0.58984
0.63477
0.67578
0.70898
0.73438
0.75977
0.76953
0.7793
0.78516
0.79492
0.79883
0.79883
0.78906
0.78516
0.7793
0.76953
0.76953
0.76563
0.76953
0.76563
0.76953
0.76953
0.77539
0.7793
0.78516
0.78516
0.78906
0.79883
0.79883
0.79883
0.80469
0.80469
0.80469
0.79883
0.79492
0.78906
0.78906
0.7793
0.7793
0.7793
0.77539
0.76953
0.76563
0.75391
0.74023
0.71484
0.69531
0.68945
0.68555
0.69531
0.73047
0.75977
0.76953
0.75977
0.75391
0.75977
0.77539
0.79492
0.80469
0.81055
0.81055
0.81055
0.81055
0.81055
0.81055
0.80469
0.80469
0.80469
0.7793
0.6543
0.41016
0.21094
0.20508
0.7207
1.125
1.2891
1.3086
1.2402
1.1543
1.1035
1.0645
1.0098
0.91016
0.78906
0.70508
0.67578
0.66016
0.65039
0.64063
0.63477
0.62891
0.625
0.61523
0.60938
0.5957
0.58008
0.56055
0.53906
0.51563
0.49023
0.46094
0.43945
0.42969
0.41992
0.42578
0.44531
0.4707
0.50586
0.54492
0.58984
0.63477
0.67969
0.7207
0.75391
0.7793
0.79492
0.81055
0.81445
0.81445
0.81445
0.81055
0.81055
0.80469
0.79883
0.78906
0.78516
0.77539
0.76953
0.76563
0.75977
0.75977
0.75391
0.75977
0.75977
0.76563
0.76563
0.76953
0.76953
0.76953
0.77539
0.7793
0.7793
0.7793
0.7793
0.7793
0.78516
0.78516
0.7793
0.7793
0.7793
0.7793
0.78516
0.78516
0.78516
0.76953
0.75
0.73047
0.7207
0.70898
0.70508
0.73438
0.77539
0.78906
0.7793
0.76953
0.76953
0.7793
0.79492
0.81055
0.81445
0.81055
0.81055
0.80469
0.80469
0.79883
0.79492
0.79492
0.79492
0.78516
0.70898
0.49023
0.23438
0.16602
0.49023
0.95898
1.2344
1.3086
1.2734
1.1934
1.125
1.084
1.0391
0.94531
0.82422
0.73438
0.69531
0.67969
0.66992
0.66406
0.66016
0.6543
0.64453
0.63477
0.62891
0.61523
0.60547
0.58398
0.56055
0.53906
0.50977
0.48047
0.45508
0.43555
0.41992
0.41992
0.43555
0.45508
0.49023
0.51953
0.56445
0.60547
0.64453
0.68555
0.7207
0.75
0.76563
0.7793
0.78906
0.79492
0.79883
0.79883
0.79492
0.78906
0.78516
0.7793
0.77539
0.76953
0.76563
0.76563
0.76563
0.76563
0.76953
0.76953
0.77539
0.7793
0.78516
0.78906
0.78906
0.78516
0.78906
0.78906
0.78906
0.78906
0.78906
0.79492
0.78516
0.78516
0.78516
0.78516
0.78516
0.78516
0.78516
0.78516
0.78516
0.7793
0.75977
0.73438
0.7207
0.70898
0.69922
0.70898
0.74414
0.77539
0.78516
0.76953
0.75977
0.75977
0.77539
0.78906
0.79883
0.80469
0.79883
0.79492
0.78906
0.78906
0.78516
0.78516
0.7793
0.7793
0.75977
0.63477
0.38477
0.18555
0.17969
0.67578
1.084
1.2637
1.2891
1.2246
1.1484
1.0938
1.0645
1.0137
0.91016
0.79492
0.7207
0.68555
0.66992
0.66406
0.66016
0.6543
0.64453
0.63477
0.62891
0.61523
0.60547
0.58398
0.57031
0.54492
0.51953
0.49023
0.46094
0.43555
0.41992
0.41602
0.41602
0.42969
0.45508
0.49023
0.5293
0.57031
0.60938
0.65039
0.68945
0.7207
0.74414
0.75977
0.76953
0.7793
0.78516
0.78906
0.78906
0.78516
0.78516
0.77539
0.76563
0.75977
0.75391
0.75391
0.75391
0.75391
0.75977
0.75977
0.76563
0.76563
0.76953
0.77539
0.7793
0.7793
0.78516
0.78906
0.78906
0.78906
0.78906
0.78906
0.78906
0.78906
0.78906
0.78906
0.78906
0.78906
0.78906
0.78906
0.78906
0.78516
0.76953
0.75
0.73047
0.71484
0.69922
0.69922
0.7207
0.75391
0.7793
0.77539
0.76563
0.75977
0.76953
0.7793
0.79883
0.80469
0.80469
0.79883
0.79883
0.79492
0.78906
0.78906
0.78516
0.7793
0.7793
0.7207
0.51563
0.25586
0.16602
0.43945
0.9043
1.209
1.2988
1.2695
1.1934
1.1289
1.0898
1.0449
0.95508
0.83398
0.74414
0.69531
0.67578
0.66992
0.66016
0.6543
0.65039
0.64453
0.64063
0.62891
0.61523
0.60547
0.58398
0.56055
0.53516
0.50977
0.48047
0.45508
0.43555
0.41992
0.41602
0.42578
0.44531
0.47461
0.50977
0.55078
0.58984
0.63477
0.67578
0.70898
0.74023
0.75391
0.76953
0.7793
0.78516
0.78906
0.78516
0.78516
0.7793
0.7793
0.76953
0.76563
0.75977
0.75977
0.75391
0.75977
0.75977
0.76563
0.76563
0.76953
0.7793
0.78516
0.78516
0.78516
0.78906
0.78906
0.79492
0.79492
0.79492
0.79492
0.78906
0.78906
0.78906
0.78906
0.78906
0.78906
0.78906
0.78906
0.78516
0.78516
0.7793
0.77539
0.75391
0.73438
0.71484
0.70508
0.69922
0.70508
0.74023
0.76953
0.77539
0.75977
0.75391
0.75977
0.77539
0.79492
0.80469
0.79883
0.79883
0.79492
0.78906
0.78516
0.78516
0.7793
0.7793
0.7793
0.74023
0.58398
0.32031
0.15625
0.31445
0.75391
1.1289
1.2637
1.2793
1.209
1.1348
1.084
1.0488
0.99023
0.87891
0.76953
0.70898
0.68945
0.67578
0.66992
0.66016
0.6543
0.65039
0.64063
0.62891
0.61914
0.60938
0.58984
0.57031
0.54492
0.51563
0.48438
0.45508
0.43555
0.41992
0.41602
0.41602
0.42969
0.46094
0.49414
0.53516
0.57422
0.61914
0.66016
0.69531
0.72461
0.75
0.75977
0.76953
0.77539
0.7793
0.78516
0.7793
0.7793
0.7793
0.7793
0.76953
0.75977
0.75977
0.75391
0.75391
0.75977
0.76563
0.76563
0.76563
0.76563
0.76953
0.77539
0.7793
0.78516
0.78516
0.78906
0.78906
0.78906
0.78906
0.78906
0.78906
0.78906
0.78906
0.78516
0.78516
0.78516
0.7793
0.7793
0.7793
0.77539
0.76953
0.76563
0.74023
0.7207
0.70508
0.69531
0.68945
0.70898
0.74414
0.76953
0.76563
0.75391
0.75
0.75977
0.77539
0.78906
0.79492
0.78906
0.78906
0.78906
0.78516
0.78516
0.7793
0.7793
0.7793
0.7793
0.73047
0.53906
0.26953
0.16602
0.41016
0.87891
1.1934
1.2949
1.2695
1.1895
1.1191
1.0801
1.0449
0.96484
0.84961
0.75391
0.70508
0.68945
0.67969
0.67578
0.66992
0.66406
0.6543
0.65039
0.64063
0.62891
0.60938
0.5957
0.57422
0.54492
0.51953
0.49023
0.4707
0.44922
0.43555
0.42969
0.43555
0.45508
0.48047
0.51563
0.55469
0.5957
0.64063
0.67969
0.71484
0.74023
0.76563
0.7793
0.78516
0.78906
0.79883
0.79492
0.79492
0.78906
0.78906
0.78516
0.7793
0.76953
0.76953
0.76563
0.76563
0.76563
0.76563
0.76953
0.77539
0.7793
0.7793
0.7793
0.78516
0.78906
0.78906
0.78906
0.78906
0.78906
0.78906
0.78906
0.79492
0.78906
0.78906
0.78906
0.78906
0.78516
0.78516
0.78516
0.78516
0.78516
0.7793
0.76563
0.74414
0.7207
0.70898
0.69531
0.69531
0.7207
0.75977
0.77539
0.76563
0.75391
0.75391
0.76563
0.7793
0.79883
0.79883
0.79492
0.78906
0.78906
0.78516
0.78516
0.7793
0.7793
0.7793
0.75977
0.66016
0.41992
0.18555
0.14453
0.56055
1.0098
1.2441
1.2891
1.2441
1.1641
1.1035
1.0645
1.0137
0.91992
0.79883
0.7207
0.68555
0.66992
0.66016
0.6543
0.6543
0.65039
0.64063
0.62891
0.61523
0.60547
0.58984
0.57031
0.55078
0.52539
0.49414
0.46484
0.43555
0.41602
0.41016
0.4043
0.41602
0.43945
0.4707
0.50977
0.55078
0.5957
0.63477
0.67578
0.70508
0.73047
0.75
0.76563
0.76953
0.77539
0.7793
0.7793
0.7793
0.77539
0.76953
0.76563
0.75977
0.75977
0.75391
0.75391
0.75391
0.75391
0.75391
0.75391
0.75977
0.76563
0.76953
0.77539
0.77539
0.77539
0.7793
0.7793
0.7793
0.7793
0.7793
0.7793
0.78516
0.7793
0.7793
0.7793
0.7793
0.78516
0.78516
0.78516
0.7793
0.76563
0.75
0.7207
0.70508
0.69531
0.68945
0.69922
0.74023
0.76563
0.76953
0.75391
0.74414
0.75391
0.76563
0.7793
0.78516
0.78516
0.7793
0.7793
0.7793
0.76953
0.76563
0.76563
0.76563
0.76563
0.72461
0.56055
0.30078
0.15625
0.33984
0.79492
1.1484
1.2695
1.2734
1.1934
1.1191
1.0742
1.0391
0.97461
0.86523
0.75391
0.69531
0.66992
0.66016
0.6543
0.65039
0.64063
0.63477
0.62891
0.61914
0.60938
0.5957
0.58008
0.56055
0.53516
0.50977
0.48047
0.44922
0.42969
0.41602
0.41016
0.41602
0.43555
0.4707
0.5
0.53906
0.58008
0.61914
0.66016
0.69922
0.72461
0.74414
0.75977
0.76563
0.77539
0.78516
0.78516
0.78516
0.78516
0.7793
0.77539
0.76953
0.75977
0.75391
0.75391
0.75391
0.75391
0.75391
0.75977
0.76563
0.76953
0.77539
0.7793
0.78516
0.78516
0.78516
0.78906
0.78906
0.78906
0.78906
0.78906
0.78906
0.78906
0.78906
0.78906
0.78516
0.78516
0.78516
0.78516
0.78516
0.7793
0.75977
0.74023
0.7207
0.70508
0.69531
0.69531
0.72461
0.76563
0.7793
0.76563
0.75977
0.75977
0.77539
0.78516
0.79883
0.80469
0.79883
0.79883
0.79492
0.78906
0.78516
0.78516
0.78516
0.78516
0.76563
0.66992
0.42969
0.19531
0.15625
0.56055
1.0137
1.25
1.2988
1.2539
1.1738
1.1152
1.0703
1.0195
0.91992
0.79883
0.72461
0.68945
0.67969
0.66992
0.66016
0.6543
0.65039
0.64063
0.62891
0.61914
0.60547
0.58984
0.57031
0.54492
0.51953
0.49023
0.46094
0.42969
0.41016
0.40039
0.39453
0.41016
0.43945
0.4707
0.50586
0.55078
0.58984
0.63477
0.67578
0.70508
0.73047
0.75
0.76563
0.76953
0.7793
0.7793
0.7793
0.7793
0.7793
0.76953
0.76563
0.75977
0.75977
0.75977
0.75977
0.75977
0.75977
0.75977
0.76563
0.76953
0.76953
0.7793
0.7793
0.7793
0.78516
0.78516
0.78906
0.78906
0.78906
0.78906
0.78516
0.78906
0.78906
0.78906
0.78516
0.78906
0.78906
0.78906
0.78516
0.77539
0.75391
0.73047
0.71484
0.70508
0.69531
0.70898
0.74414
0.76953
0.77539
0.75977
0.75977
0.76563
0.77539
0.78906
0.79883
0.79883
0.79492
0.79492
0.79492
0.78906
0.78516
0.78516
0.78516
0.7793
0.73438
0.56445
0.29492
0.15039
0.3457
0.80469
1.1641
1.2793
1.2891
1.209
1.1348
1.0898
1.0488
0.98438
0.875
0.76563
0.70508
0.67969
0.66992
0.66016
0.66016
0.65039
0.64063
0.62891
0.625
0.60938
0.5957
0.58008
0.56055
0.53516
0.50586
0.47461
0.44531
0.41992
0.41016
0.4043
0.41016
0.42969
0.45508
0.49023
0.5293
0.57422
0.61914
0.66016
0.69531
0.72461
0.74414
0.75977
0.76953
0.77539
0.7793
0.78516
0.78516
0.78516
0.7793
0.76953
0.76563
0.76563
0.75977
0.75977
0.75391
0.75391
0.75391
0.75977
0.76563
0.76953
0.77539
0.7793
0.7793
0.78516
0.78516
0.78906
0.78906
0.78906
0.78906
0.78906
0.78906
0.78906
0.79492
0.79492
0.78906
0.78906
0.78906
0.78906
0.78906
0.78516
0.76563
0.74023
0.7207
0.70898
0.69922
0.70508
0.74023
0.76953
0.7793
0.76563
0.75977
0.76563
0.77539
0.79492
0.80469
0.81055
0.80469
0.80469
0.80469
0.80469
0.79883
0.79492
0.78906
0.78906
0.77539
0.66016
0.41602
0.18945
0.16016
0.61914
1.0586
1.2734
1.3086
1.25
1.1699
1.1152
1.0742
1.0137
0.91016
0.78906
0.7207
0.69531
0.67969
0.66992
0.66406
0.66016
0.6543
0.64453
0.63477
0.625
0.60938
0.58984
0.57422
0.55078
0.51953
0.49414
0.4707
0.44531
0.41992
0.41602
0.41602
0.42578
0.44922
0.48438
0.52539
0.56445
0.60938
0.65039
0.68945
0.7207
0.74414
0.76563
0.77539
0.78516
0.78516
0.78906
0.78906
0.78516
0.78516
0.7793
0.77539
0.76953
0.76563
0.76563
0.76563
0.76953
0.76953
0.77539
0.7793
0.7793
0.78516
0.78516
0.78906
0.78906
0.78906
0.78906
0.79492
0.79883
0.79883
0.79883
0.79492
0.79492
0.79492
0.79492
0.79492
0.79492
0.78906
0.78906
0.78906
0.78516
0.77539
0.75391
0.73438
0.7207
0.70508
0.69922
0.71484
0.75
0.77539
0.7793
0.75977
0.75977
0.76563
0.7793
0.79492
0.80469
0.79883
0.79492
0.79492
0.78906
0.78516
0.78516
0.7793
0.7793
0.7793
0.73438
0.56445
0.29492
0.15039
0.33984
0.78906
1.1445
1.2734
1.2891
1.2051
1.1289
1.084
1.0449
0.97461
0.86523
0.75391
0.69922
0.67969
0.66992
0.66016
0.6543
0.65039
0.64063
0.63477
0.625
0.61523
0.59961
0.58398
0.56055
0.53906
0.50977
0.48047
0.45508
0.43555
0.41602
0.41016
0.41602
0.43555
0.46094
0.49414
0.5293
0.57422
0.61523
0.66016
0.69531
0.7207
0.74414
0.75977
0.76563
0.76953
0.77539
0.7793
0.7793
0.7793
0.76953
0.76563
0.75977
0.75977
0.75391
0.75391
0.75391
0.75391
0.75977
0.75977
0.76563
0.76953
0.77539
0.7793
0.7793
0.78516
0.78516
0.78516
0.78516
0.78516
0.78516
0.78516
0.7793
0.7793
0.7793
0.77539
0.77539
0.77539
0.7793
0.76953
0.75391
0.73047
0.70508
0.69531
0.68555
0.68945
0.7207
0.75391
0.75977
0.75
0.74414
0.75391
0.76563
0.7793
0.78516
0.78516
0.78516
0.7793
0.7793
0.76953
0.76953
0.76563
0.76563
0.76563
0.75
0.63477
0.38477
0.17578
0.15625
0.64063
1.0645
1.2539
1.2793
1.2246
1.1445
1.0898
1.0488
1
0.90039
0.78516
0.70508
0.67578
0.66016
0.6543
0.65039
0.64453
0.64063
0.63477
0.625
0.61523
0.60547
0.58398
0.57031
0.54492
0.51953
0.49023
0.46484
0.44531
0.42969
0.41992
0.41992
0.43555
0.46094
0.49023
0.52539
0.57031
0.61523
0.6543
0.68945
0.7207
0.75
0.76563
0.77539
0.7793
0.78906
0.78906
0.78906
0.78906
0.78906
0.78516
0.77539
0.76953
0.76953
0.76563
0.76563
0.76563
0.76953
0.77539
0.7793
0.78516
0.78906
0.78906
0.79492
0.79883
0.79883
0.79883
0.80469
0.80469
0.79883
0.79883
0.79883
0.79883
0.79883
0.79883
0.79883
0.79883
0.79883
0.79492
0.79492
0.79492
0.78906
0.77539
0.75
0.73047
0.7207
0.70508
0.71484
0.75
0.7793
0.78516
0.76953
0.75977
0.76563
0.7793
0.79883
0.80469
0.80469
0.80469
0.80469
0.79883
0.79883
0.78906
0.78906
0.78516
0.78516
0.76563
0.63477
0.38086
0.17578
0.16602
0.66992
1.0898
1.2734
1.3047
1.2441
1.1699
1.1152
1.0703
1.0098
0.90039
0.78516
0.7207
0.69531
0.67969
0.66992
0.66016
0.6543
0.65039
0.64063
0.63477
0.625
0.60938
0.5957
0.57422
0.55078
0.52539
0.49414
0.4707
0.44531
0.42578
0.41992
0.41992
0.43555
0.46094
0.49023
0.5293
0.57031
0.61523
0.6543
0.68945
0.7207
0.74414
0.75977
0.7793
0.78516
0.78516
0.78906
0.78906
0.78906
0.78516
0.7793
0.76953
0.76563
0.76563
0.76563
0.76563
0.76563
0.76953
0.77539
0.7793
0.78516
0.78516
0.78906
0.78906
0.79492
0.79492
0.79883
0.79883
0.79883
0.79883
0.79883
0.79883
0.79492
0.79492
0.79492
0.79492
0.79492
0.78906
0.78906
0.78906
0.78906
0.78516
0.7793
0.76563
0.74414
0.7207
0.70898
0.69922
0.69531
0.72461
0.75977
0.76953
0.76563
0.75977
0.75977
0.76953
0.78516
0.79883
0.79883
0.79492
0.79492
0.79492
0.78906
0.78906
0.78516
0.78516
0.78516
0.76953
0.66016
0.41016
0.18555
0.15625
0.61523
1.0449
1.25
1.2852
1.2344
1.1543
1.1035
1.0703
1.0195
0.91992
0.80469
0.72461
0.68945
0.67578
0.66406
0.6543
0.65039
0.64063
0.63477
0.625
0.61523
0.59961
0.58398
0.57031
0.54492
0.51563
0.49023
0.46094
0.43555
0.41992
0.41016
0.41016
0.41992
0.44531
0.47461
0.50977
0.55078
0.58984
0.63477
0.66992
0.69922
0.72461
0.74414
0.75977
0.76563
0.76953
0.7793
0.7793
0.77539
0.76953
0.76953
0.76563
0.75977
0.75391
0.75391
0.75391
0.75391
0.75977
0.76563
0.76953
0.77539
0.7793
0.7793
0.78516
0.78906
0.78906
0.78906
0.79883
0.79883
0.79883
0.79883
0.79883
0.79492
0.79492
0.79492
0.78906
0.78906
0.78906
0.78906
0.78516
0.78516
0.78516
0.7793
0.76953
0.75
0.72461
0.70898
0.69922
0.69922
0.7207
0.75977
0.7793
0.76953
0.75977
0.75977
0.76953
0.78516
0.79883
0.80469
0.80469
0.79883
0.79883
0.79492
0.78906
0.78516
0.78516
0.78516
0.7793
0.70508
0.48438
0.23047
0.16016
0.47461
0.94531
1.2285
1.3047
1.2695
1.1934
1.1289
1.0898
1.0352
0.93945
0.82031
0.73438
0.69531
0.67969
0.66992
0.66406
0.6543
0.65039
0.64063
0.63477
0.625
0.60938
0.5957
0.58008
0.56055
0.53516
0.50586
0.47461
0.44922
0.42969
0.41992
0.41602
0.41992
0.43945
0.4707
0.5
0.53906
0.58398
0.625
0.66406
0.69922
0.73047
0.74414
0.75977
0.76563
0.76953
0.77539
0.77539
0.77539
0.76953
0.76563
0.75977
0.75391
0.75391
0.75391
0.75391
0.75391
0.75391
0.75977
0.76563
0.76563
0.76953
0.7793
0.78516
0.78516
0.78906
0.78906
0.78906
0.78906
0.78906
0.78906
0.78906
0.78906
0.78906
0.78906
0.78906
0.78516
0.78516
0.78516
0.78516
0.7793
0.76953
0.75977
0.74023
0.7207
0.70508
0.69531
0.69531
0.71484
0.75391
0.76953
0.75977
0.75391
0.75391
0.76563
0.78516
0.79492
0.79883
0.79883
0.79492
0.79492
0.78906
0.78906
0.78516
0.78516
0.78516
0.77539
0.69531
0.4707
0.2207
0.16016
0.50977
0.95898
1.2188
1.2793
1.2441
1.1738
1.1152
1.0742
1.0293
0.93945
0.82422
0.73438
0.68945
0.67578
0.66992
0.66016
0.6543
0.65039
0.64063
0.62891
0.61914
0.60547
0.58984
0.57031
0.55469
0.52539
0.5
0.4707
0.44922
0.42969
0.41992
0.41602
0.42578
0.44531
0.4707
0.50586
0.54492
0.58398
0.62891
0.66406
0.69922
0.73047
0.75
0.75977
0.76563
0.76953
0.77539
0.77539
0.76953
0.76563
0.75977
0.75391
0.75391
0.75
0.74414
0.74414
0.74414
0.75
0.75391
0.75977
0.75977
0.76563
0.76563
0.76953
0.7793
0.7793
0.7793
0.7793
0.7793
0.7793
0.78516
0.78516
0.7793
0.7793
0.77539
0.76953
0.76953
0.76953
0.76953
0.76953
0.76953
0.76563
0.75977
0.74023
0.71484
0.69922
0.68945
0.68555
0.69922
0.74414
0.76563
0.76953
0.75
0.74414
0.75391
0.77539
0.78906
0.79492
0.79492
0.78906
0.78906
0.78516
0.78516
0.78516
0.78516
0.7793
0.7793
0.73438
0.56055
0.30078
0.16992
0.39063
0.83984
1.1738
1.2852
1.2949
1.2051
1.1289
1.084
1.0488
0.96875
0.85547
0.75
0.69922
0.67969
0.66992
0.66016
0.6543
0.65039
0.64063
0.63477
0.625
0.60938
0.5957
0.58398
0.56445
0.54492
0.51953
0.49414
0.47461
0.44922
0.43555
0.43555
0.43945
0.45508
0.48047
0.50977
0.54492
0.58398
0.61914
0.66016
0.69531
0.72461
0.74414
0.75977
0.76563
0.76953
0.7793
0.7793
0.7793
0.77539
0.76953
0.76563
0.76563
0.75977
0.75391
0.75391
0.75391
0.75977
0.76563
0.76953
0.77539
0.7793
0.78516
0.78516
0.78906
0.78906
0.79492
0.79492
0.79492
0.79492
0.79492
0.79492
0.78906
0.78906
0.78906
0.78906
0.78906
0.78906
0.78906
0.78516
0.78516
0.7793
0.76953
0.75391
0.73438
0.71484
0.70508
0.69531
0.70898
0.74414
0.76953
0.77539
0.75977
0.75977
0.76563
0.7793
0.79492
0.80469
0.79883
0.79883
0.79492
0.78906
0.78906
0.78516
0.78516
0.7793
0.7793
0.74414
0.58008
0.31445
0.15625
0.33594
0.78516
1.1387
1.2695
1.2852
1.209
1.1348
1.0898
1.0488
0.98047
0.86523
0.75977
0.70508
0.67969
0.66992
0.66016
0.6543
0.65039
0.64063
0.62891
0.625
0.60938
0.5957
0.58008
0.56445
0.54492
0.51953
0.49414
0.4707
0.44922
0.43945
0.43555
0.43555
0.44922
0.47461
0.50977
0.53906
0.57422
0.61523
0.6543
0.68945
0.71484
0.74023
0.75391
0.76563
0.77539
0.7793
0.7793
0.77539
0.76953
0.76563
0.75977
0.75391
0.75
0.74414
0.74414
0.75391
0.75391
0.75977
0.76563
0.76953
0.77539
0.7793
0.78516
0.78516
0.78906
0.78906
0.79492
0.79492
0.79492
0.78906
0.78906
0.78906
0.78906
0.78906
0.79492
0.78906
0.78906
0.78906
0.78906
0.78516
0.7793
0.76953
0.75
0.73047
0.71484
0.70508
0.69922
0.7207
0.75977
0.77539
0.76563
0.75391
0.75391
0.76563
0.7793
0.79492
0.79883
0.79492
0.78906
0.78906
0.78516
0.78516
0.78516
0.78516
0.7793
0.77539
0.70508
0.49414
0.24609
0.17578
0.49414
0.94922
1.2148
1.2734
1.2402
1.1699
1.1094
1.0742
1.0293
0.94922
0.83398
0.74414
0.69531
0.67578
0.66992
0.66016
0.6543
0.64453
0.64063
0.62891
0.61914
0.60938
0.5957
0.58008
0.56055
0.53516
0.50977
0.48438
0.46484
0.44922
0.43555
0.43555
0.43945
0.46094
0.49023
0.51953
0.55469
0.5957
0.64063
0.67578
0.70508
0.73047
0.75
0.76563
0.77539
0.7793
0.78516
0.78516
0.7793
0.77539
0.76953
0.76563
0.75977
0.75391
0.75391
0.75977
0.75977
0.76563
0.76563
0.76953
0.77539
0.7793
0.78516
0.78516
0.78516
0.78906
0.78906
0.78906
0.79492
0.79492
0.79492
0.79492
0.79492
0.78906
0.78906
0.78906
0.78906
0.78906
0.78906
0.78906
0.78906
0.7793
0.76563
0.74023
0.7207
0.70508
0.69922
0.69922
0.74023
0.76953
0.7793
0.76563
0.75977
0.76563
0.77539
0.78906
0.80469
0.80469
0.79883
0.79883
0.79492
0.78906
0.78906
0.78906
0.78516
0.78906
0.77539
0.66406
0.41992
0.20117
0.16992
0.61914
1.0547
1.2598
1.2949
1.2441
1.1699
1.1152
1.0801
1.0137
0.9043
0.78906
0.7207
0.68945
0.67578
0.66406
0.66016
0.6543
0.65039
0.64063
0.63477
0.625
0.60938
0.5957
0.58008
0.56055
0.53516
0.50586
0.48047
0.45508
0.43945
0.43555
0.42969
0.43945
0.46484
0.49414
0.52539
0.56445
0.60547
0.64453
0.68555
0.7207
0.74023
0.75977
0.76953
0.7793
0.78516
0.78516
0.7793
0.77539
0.76953
0.76563
0.75977
0.75977
0.75977
0.75977
0.75977
0.75977
0.76563
0.76953
0.7793
0.7793
0.78516
0.78906
0.78906
0.79492
0.79492
0.79492
0.79492
0.79492
0.79492
0.79883
0.79492
0.79492
0.79492
0.79492
0.78906
0.78906
0.78906
0.78906
0.78516
0.77539
0.75391
0.73047
0.71484
0.70508
0.69531
0.70508
0.74023
0.76563
0.76953
0.75977
0.75391
0.76563
0.7793
0.78906
0.79883
0.79883
0.79492
0.78906
0.78906
0.78906
0.78906
0.78516
0.78516
0.78516
0.75
0.60547
0.3457
0.17969
0.33594
0.76953
1.1348
1.2598
1.2734
1.1992
1.1289
1.084
1.0488
0.99023
0.87891
0.76953
0.70508
0.67969
0.66406
0.6543
0.65039
0.64453
0.64063
0.62891
0.625
0.60938
0.5957
0.58008
0.56445
0.54492
0.51953
0.49414
0.4707
0.44922
0.43555
0.42969
0.42969
0.44531
0.4707
0.5
0.5293
0.57031
0.60938
0.64453
0.68555
0.70898
0.73047
0.75
0.75977
0.76953
0.76953
0.76953
0.76953
0.76563
0.75977
0.75391
0.75
0.74414
0.74414
0.74414
0.74414
0.75391
0.75391
0.75977
0.76563
0.76953
0.77539
0.7793
0.78516
0.78516
0.78906
0.78906
0.78906
0.78906
0.78906
0.78906
0.78906
0.78906
0.78906
0.78906
0.78906
0.78906
0.78906
0.78906
0.78516
0.7793
0.75977
0.73438
0.71484
0.69922
0.69531
0.69922
0.73438
0.76563
0.77539
0.75977
0.75391
0.75391
0.76563
0.78516
0.79883
0.80469
0.79883
0.79883
0.79883
0.79492
0.78906
0.78516
0.78516
0.78516
0.77539
0.67969
0.44531
0.21094
0.16992
0.58008
1.0195
1.2441
1.2891
1.2402
1.1641
1.1094
1.0703
1.0137
0.91406
0.79492
0.7207
0.68555
0.67578
0.66406
0.66016
0.6543
0.65039
0.64063
0.63477
0.625
0.60938
0.59961
0.58398
0.56445
0.53906
0.51563
0.49023
0.4707
0.44922
0.43945
0.43945
0.44922
0.4707
0.5
0.53516
0.57031
0.60938
0.64453
0.68555
0.71484
0.74023
0.75391
0.76953
0.77539
0.7793
0.7793
0.7793
0.77539
0.76953
0.76563
0.75977
0.75977
0.75391
0.75391
0.75391
0.75391
0.75977
0.76563
0.76953
0.77539
0.7793
0.78516
0.78906
0.78906
0.78906
0.78906
0.79492
0.79492
0.79492
0.79492
0.79492
0.79492
0.79492
0.79492
0.78906
0.78906
0.78516
0.78516
0.78516
0.78516
0.7793
0.76563
0.74414
0.72461
0.70898
0.69922
0.69531
0.71484
0.75391
0.76953
0.76563
0.75391
0.75391
0.76563
0.7793
0.79492
0.79883
0.79883
0.78906
0.78906
0.78906
0.78516
0.78516
0.78516
0.78516
0.7793
0.71484
0.51563
0.26563
0.17969
0.44922
0.90039
1.1895
1.2695
1.2441
1.1738
1.1152
1.0742
1.0352
0.94922
0.83398
0.74023
0.69531
0.67578
0.66992
0.66016
0.6543
0.65039
0.64063
0.63477
0.625
0.61523
0.59961
0.58398
0.56445
0.54492
0.51953
0.5
0.47461
0.45508
0.44922
0.44531
0.44922
0.46484
0.49023
0.51953
0.55469
0.58984
0.62891
0.66992
0.69922
0.72461
0.74414
0.75977
0.76953
0.77539
0.77539
0.76953
0.76953
0.76563
0.75391
0.75
0.74414
0.74023
0.74023
0.74023
0.74023
0.74414
0.75391
0.75977
0.75977
0.76563
0.76953
0.77539
0.7793
0.7793
0.7793
0.78516
0.78516
0.78516
0.78516
0.7793
0.7793
0.7793
0.7793
0.7793
0.7793
0.7793
0.7793
0.7793
0.7793
0.77539
0.76953
0.75391
0.73047
0.70508
0.69531
0.67969
0.68945
0.72461
0.75391
0.76563
0.75391
0.74414
0.75
0.76563
0.78516
0.78906
0.78906
0.78516
0.78516
0.7793
0.7793
0.7793
0.76953
0.76953
0.76953
0.75
0.63477
0.39063
0.19531
0.18945
0.69531
1.0898
1.2539
1.2695
1.209
1.1348
1.0898
1.0488
1
0.90039
0.78516
0.70898
0.67969
0.66992
0.66016
0.66016
0.6543
0.65039
0.64063
0.63477
0.625
0.60938
0.59961
0.58398
0.56445
0.53906
0.51563
0.49414
0.47461
0.46094
0.45508
0.45508
0.46484
0.49023
0.51563
0.54492
0.58008
0.61523
0.65039
0.68555
0.71484
0.73438
0.75391
0.76563
0.76953
0.77539
0.77539
0.77539
0.76953
0.76953
0.76563
0.75391
0.75
0.74414
0.74414
0.74414
0.75
0.75391
0.75977
0.76563
0.76563
0.76953
0.77539
0.7793
0.78516
0.78516
0.78906
0.78906
0.78906
0.78906
0.78906
0.78906
0.78906
0.78906
0.78906
0.78906
0.78906
0.78906
0.78906
0.78906
0.78906
0.78516
0.76953
0.75
0.72461
0.71484
0.69922
0.69531
0.7207
0.75977
0.7793
0.76953
0.75977
0.75977
0.76953
0.78516
0.79883
0.80469
0.79883
0.79883
0.79883
0.79492
0.78906
0.78906
0.78516
0.78516
0.7793
0.70898
0.50977
0.25586
0.17578
0.46094
0.91992
1.2051
1.2852
1.2598
1.1895
1.1191
1.084
1.0449
0.95508
0.83398
0.74414
0.70508
0.68945
0.67969
0.67578
0.66992
0.66016
0.65039
0.64063
0.62891
0.61914
0.60547
0.58984
0.56445
0.54492
0.51953
0.5
0.47461
0.45508
0.44531
0.43945
0.44922
0.46094
0.49023
0.51953
0.55469
0.5957
0.63477
0.67578
0.70898
0.73438
0.75
0.76563
0.76953
0.7793
0.7793
0.7793
0.76953
0.76953
0.76563
0.75977
0.75391
0.75
0.75
0.75
0.75
0.75391
0.75977
0.75977
0.76563
0.76953
0.77539
0.7793
0.7793
0.78516
0.78516
0.78516
0.78516
0.78516
0.7793
0.7793
0.7793
0.7793
0.7793
0.7793
0.7793
0.77539
0.77539
0.76953
0.76953
0.76563
0.75391
0.73047
0.70898
0.69922
0.68945
0.68945
0.72461
0.75977
0.76953
0.75977
0.75
0.75391
0.76563
0.78516
0.79492
0.78906
0.78906
0.78516
0.78516
0.78516
0.7793
0.7793
0.77539
0.77539
0.76563
0.66992
0.43945
0.21094
0.16992
0.58008
1.0098
1.2246
1.2637
1.2188
1.1445
1.0898
1.0547
1.0137
0.92383
0.81055
0.72461
0.68555
0.66992
0.66016
0.6543
0.65039
0.64453
0.64063
0.62891
0.61914
0.60938
0.5957
0.57422
0.55469
0.5293
0.50977
0.48438
0.46484
0.44922
0.44531
0.44531
0.45508
0.47461
0.5
0.53516
0.57031
0.60938
0.64453
0.67969
0.70898
0.73438
0.75391
0.76563
0.76953
0.7793
0.7793
0.7793
0.77539
0.76563
0.75977
0.75391
0.75
0.75
0.75
0.75
0.75391
0.75391
0.75977
0.76563
0.76563
0.76953
0.76953
0.7793
0.7793
0.78516
0.78516
0.78516
0.78516
0.78516
0.78516
0.78906
0.78516
0.78516
0.78516
0.78516
0.78516
0.7793
0.7793
0.7793
0.7793
0.7793
0.76563
0.75
0.72461
0.70508
0.69531
0.69531
0.70898
0.75
0.76953
0.77539
0.75977
0.75391
0.76563
0.7793
0.79492
0.79883
0.79883
0.79883
0.78906
0.78906
0.78516
0.78516
0.7793
0.7793
0.7793
0.73047
0.55469
0.29102
0.16602
0.38086
0.83008
1.1641
1.2734
1.2852
1.1934
1.125
1.084
1.0449
0.96484
0.84961
0.75
0.69922
0.67969
0.67578
0.66406
0.66016
0.6543
0.64453
0.63477
0.625
0.61523
0.60547
0.58398
0.57031
0.54492
0.51953
0.49414
0.4707
0.45508
0.43945
0.43945
0.43945
0.45508
0.48047
0.51563
0.55078
0.58398
0.625
0.66406
0.69531
0.7207
0.74023
0.75977
0.76563
0.76953
0.77539
0.77539
0.76953
0.76563
0.76563
0.75977
0.75391
0.75391
0.75
0.74414
0.75
0.75391
0.75977
0.76563
0.76953
0.77539
0.7793
0.78516
0.78906
0.78906
0.78906
0.78906
0.79492
0.79492
0.79492
0.79492
0.78906
0.78906
0.78906
0.78906
0.78516
0.78516
0.78516
0.78516
0.78516
0.7793
0.7793
0.76563
0.75
0.72461
0.70898
0.69922
0.69531
0.7207
0.75977
0.7793
0.76953
0.75977
0.75977
0.76953
0.78516
0.79883
0.79883
0.79883
0.79492
0.78906
0.78906
0.78516
0.78516
0.7793
0.7793
0.76953
0.69922
0.48438
0.23438
0.16602
0.48047
0.93555
1.2051
1.2695
1.2344
1.1699
1.1152
1.0742
1.0391
0.95508
0.83984
0.74414
0.69922
0.67969
0.66992
0.66016
0.6543
0.6543
0.64453
0.63477
0.625
0.60938
0.5957
0.58008
0.56055
0.53906
0.51563
0.49023
0.4707
0.44922
0.43555
0.43555
0.43945
0.45508
0.48438
0.51953
0.55469
0.58984
0.62891
0.66406
0.69531
0.7207
0.74023
0.75391
0.76563
0.76953
0.76953
0.76953
0.76563
0.75977
0.75391
0.75
0.74414
0.74414
0.74023
0.74023
0.74023
0.74414
0.75
0.75391
0.75391
0.75977
0.76563
0.76953
0.76953
0.77539
0.77539
0.7793
0.7793
0.7793
0.7793
0.7793
0.7793
0.7793
0.7793
0.7793
0.7793
0.7793
0.77539
0.76953
0.75977
0.73438
0.71484
0.69922
0.68945
0.67969
0.68945
0.72461
0.75977
0.77539
0.76953
0.76563
0.75977
0.76953
0.78516
0.79492
0.79883
0.79883
0.79492
0.78906
0.78906
0.78516
0.7793
0.7793
0.7793
0.73438
0.56055
0.29492
0.16992
0.39453
0.84961
1.1738
1.2793
1.2637
1.1895
1.1191
1.0801
1.0449
0.96484
0.84961
0.75
0.69922
0.67969
0.66992
0.66016
0.66016
0.6543
0.65039
0.64063
0.62891
0.61914
0.60547
0.58984
0.57031
0.54492
0.52539
0.5
0.47461
0.45508
0.44531
0.43945
0.44922
0.46094
0.49023
0.51953
0.55469
0.58984
0.62891
0.66992
0.69922
0.73047
0.75
0.75977
0.76953
0.7793
0.7793
0.7793
0.77539
0.76953
0.76563
0.75977
0.75977
0.75391
0.75391
0.75391
0.75391
0.75977
0.76563
0.76953
0.76953
0.77539
0.7793
0.78516
0.78516
0.78906
0.78906
0.79492
0.79492
0.78906
0.78906
0.78906
0.78906
0.78906
0.78906
0.78906
0.78906
0.78906
0.78906
0.78906
0.78516
0.78516
0.78516
0.7793
0.76563
0.74023
0.7207
0.70508
0.69922
0.69922
0.73047
0.76563
0.7793
0.76563
0.75977
0.75977
0.77539
0.78516
0.79883
0.79883
0.79883
0.79883
0.79883
0.79883
0.78906
0.78906
0.78906
0.78906
0.7793
0.67969
0.43945
0.20508
0.16602
0.58008
1.0195
1.2344
1.2793
1.2344
1.1641
1.1094
1.0703
1.0254
0.92969
0.81445
0.73438
0.69922
0.68945
0.67969
0.66992
0.66992
0.66016
0.6543
0.65039
0.63477
0.61914
0.60547
0.58398
0.56055
0.53906
0.51563
0.49023
0.4707
0.45508
0.43945
0.43945
0.44922
0.4707
0.5
0.5293
0.56445
0.59961
0.63477
0.67578
0.70898
0.73438
0.75391
0.76563
0.76953
0.7793
0.7793
0.77539
0.76953
0.75977
0.75391
0.75
0.74414
0.74414
0.74023
0.74023
0.74414
0.75391
0.75977
0.76563
0.76563
0.76563
0.76953
0.77539
0.77539
0.77539
0.7793
0.7793
0.7793
0.7793
0.7793
0.77539
0.7793
0.7793
0.7793
0.77539
0.77539
0.77539
0.77539
0.76953
0.75977
0.73438
0.70898
0.69531
0.68945
0.68945
0.70898
0.75
0.76563
0.76953
0.75391
0.75
0.75977
0.77539
0.79492
0.79883
0.79492
0.78906
0.78906
0.78906
0.78516
0.7793
0.7793
0.7793
0.7793
0.73047
0.55078
0.29102
0.17578
0.41016
0.85938
1.1797
1.2793
1.2852
1.1934
1.125
1.0801
1.0449
0.96875
0.85547
0.75391
0.70508
0.67969
0.67578
0.66992
0.66992
0.66016
0.6543
0.64453
0.63477
0.625
0.60938
0.5957
0.58008
0.55469
0.53516
0.50977
0.48438
0.46484
0.45508
0.45508
0.45508
0.4707
0.49414
0.52539
0.56055
0.59961
0.63477
0.66992
0.70508
0.73438
0.75
0.76563
0.77539
0.7793
0.78516
0.78516
0.7793
0.7793
0.77539
0.76563
0.75977
0.75391
0.75391
0.75977
0.75977
0.76563
0.76563
0.76953
0.76953
0.7793
0.78516
0.78516
0.78906
0.78906
0.79492
0.79492
0.79492
0.79883
0.79883
0.79883
0.79492
0.78906
0.78906
0.78906
0.78906
0.78906
0.78516
0.78516
0.7793
0.76953
0.75
0.72461
0.71484
0.69922
0.69531
0.71484
0.75391
0.77539
0.76953
0.75391
0.75391
0.75977
0.7793
0.79883
0.79883
0.79883
0.79492
0.78906
0.78906
0.78516
0.78516
0.78516
0.78516
0.78516
0.73438
0.55469
0.28516
0.15625
0.375
0.83398
1.1699
1.2734
1.2852
1.1934
1.125
1.084
1.0449
0.96875
0.85547
0.75391
0.70508
0.67969
0.66992
0.66016
0.6543
0.65039
0.64063
0.62891
0.61914
0.60938
0.5957
0.58008
0.56055
0.53516
0.50977
0.48438
0.46094
0.43945
0.42969
0.42578
0.42969
0.44531
0.4707
0.5
0.53516
0.57422
0.61523
0.6543
0.68945
0.71484
0.73438
0.75
0.75977
0.76563
0.76953
0.76953
0.76563
0.75977
0.75391
0.74414
0.74023
0.74023
0.73438
0.73438
0.74023
0.74414
0.74414
0.75
0.75391
0.75977
0.76563
0.76563
0.76953
0.76953
0.77539
0.77539
0.7793
0.7793
0.7793
0.7793
0.7793
0.7793
0.7793
0.77539
0.7793
0.7793
0.7793
0.7793
0.77539
0.76953
0.75977
0.73438
0.71484
0.69922
0.69531
0.68945
0.7207
0.75977
0.77539
0.76953
0.75977
0.75391
0.76563
0.78516
0.79883
0.80469
0.79883
0.79883
0.79883
0.78906
0.78906
0.78516
0.78516
0.7793
0.7793
0.70898
0.50977
0.25586
0.17578
0.46094
0.91992
1.2051
1.2852
1.2539
1.1836
1.125
1.084
1.0449
0.95508
0.83398
0.74414
0.69922
0.68555
0.67578
0.66992
0.66406
0.66016
0.65039
0.64063
0.63477
0.625
0.60938
0.58984
0.57031
0.55078
0.52539
0.5
0.48047
0.46094
0.44922
0.44922
0.44922
0.4707
0.49414
0.52539
0.56055
0.59961
0.64063
0.67578
0.70898
0.73438
0.75391
0.76953
0.7793
0.78516
0.7793
0.7793
0.77539
0.76953
0.76563
0.75977
0.75391
0.75391
0.75
0.75
0.75391
0.75977
0.76563
0.76953
0.77539
0.7793
0.78516
0.78906
0.78906
0.78906
0.78906
0.79492
0.79883
0.79492
0.79883
0.79883
0.79492
0.79492
0.79492
0.78906
0.78906
0.78906
0.78906
0.78906
0.78906
0.78516
0.7793
0.75977
0.74023
0.7207
0.70508
0.69922
0.70898
0.74414
0.76953
0.77539
0.75977
0.75391
0.75977
0.77539
0.78906
0.79883
0.80469
0.79883
0.79883
0.79492
0.78906
0.78906
0.78516
0.78516
0.78516
0.76563
0.64453
0.39063
0.17969
0.16992
0.66406
1.0703
1.25
1.2734
1.2188
1.1484
1.0996
1.0645
1.0098
0.9043
0.78906
0.7207
0.69531
0.67969
0.66992
0.66406
0.66016
0.6543
0.65039
0.63477
0.625
0.60938
0.5957
0.58008
0.55469
0.53516
0.50977
0.48438
0.46484
0.44922
0.43945
0.43945
0.44922
0.4707
0.5
0.53516
0.56445
0.60547
0.64063
0.67969
0.70898
0.73047
0.75
0.75977
0.76953
0.77539
0.76953
0.76953
0.76563
0.75977
0.75391
0.75
0.74414
0.74414
0.74414
0.74414
0.74414
0.75391
0.75977
0.76563
0.76563
0.76953
0.76953
0.7793
0.7793
0.77539
0.7793
0.7793
0.7793
0.77539
0.76953
0.77539
0.7793
0.7793
0.76953
0.76953
0.76953
0.76953
0.76953
0.76953
0.76563
0.75977
0.74023
0.71484
0.69922
0.68945
0.67969
0.68945
0.72461
0.75391
0.75977
0.75
0.74414
0.74414
0.75977
0.77539
0.78516
0.78906
0.78516
0.78516
0.78516
0.7793
0.7793
0.77539
0.77539
0.77539
0.75977
0.63477
0.38477
0.18945
0.18555
0.68945
1.0898
1.2598
1.2852
1.2188
1.1445
1.0938
1.0586
1.0098
0.9043
0.79492
0.72461
0.69531
0.67969
0.67578
0.66992
0.66016
0.6543
0.65039
0.64063
0.62891
0.61914
0.60938
0.58984
0.57031
0.54492
0.51953
0.49414
0.47461
0.46484
0.46094
0.46094
0.4707
0.49023
0.51953
0.55078
0.58398
0.61914
0.66016
0.69531
0.72461
0.75
0.76563
0.77539
0.78516
0.78516
0.78516
0.78516
0.7793
0.77539
0.76953
0.76563
0.76563
0.75977
0.75977
0.75977
0.76563
0.76563
0.76953
0.77539
0.7793
0.78516
0.78516
0.78906
0.79492
0.79883
0.79883
0.79883
0.79883
0.79883
0.79883
0.79492
0.79492
0.79883
0.79492
0.79492
0.79883
0.79492
0.78906
0.78906
0.78906
0.78906
0.7793
0.75977
0.73438
0.7207
0.70508
0.69922
0.70898
0.74414
0.76953
0.7793
0.76563
0.75977
0.76563
0.7793
0.79492
0.80469
0.80469
0.80469
0.80469
0.79883
0.79883
0.79492
0.78906
0.78906
0.78906
0.76563
0.62891
0.375
0.17578
0.26953
0.69531
1.0938
1.2637
1.2852
1.2246
1.1543
1.1035
1.0645
1
0.88867
0.7793
0.71484
0.68945
0.67578
0.66992
0.66016
0.6543
0.65039
0.64453
0.63477
0.625
0.60938
0.5957
0.57422
0.55469
0.52539
0.5
0.47461
0.45508
0.43945
0.43555
0.43555
0.43945
0.46094
0.49023
0.52539
0.56055
0.59961
0.63477
0.67578
0.70508
0.73047
0.74414
0.75391
0.75977
0.75977
0.76563
0.75977
0.75977
0.75391
0.75
0.74023
0.74023
0.73438
0.73438
0.73438
0.74023
0.74414
0.74414
0.75
0.75391
0.75391
0.75977
0.76563
0.76953
0.76953
0.76953
0.76563
0.76563
0.76563
0.76953
0.76563
0.76563
0.76563
0.76563
0.76563
0.76563
0.76563
0.76563
0.75977
0.75977
0.75391
0.74023
0.71484
0.69531
0.68555
0.67578
0.67578
0.69922
0.73438
0.75
0.74023
0.73438
0.73438
0.74414
0.75977
0.77539
0.7793
0.77539
0.77539
0.77539
0.76953
0.76563
0.76563
0.75977
0.76563
0.76563
0.70508
0.50977
0.25586
0.16992
0.45508
0.91016
1.1934
1.2695
1.25
1.1738
1.1152
1.0742
1.0352
0.95508
0.84961
0.75391
0.70508
0.68945
0.67969
0.67578
0.66406
0.6543
0.65039
0.64063
0.63477
0.625
0.60938
0.5957
0.57422
0.55469
0.5293
0.50977
0.49023
0.4707
0.45508
0.45508
0.45508
0.4707
0.5
0.5293
0.56445
0.59961
0.63477
0.67578
0.70898
0.73438
0.75391
0.76563
0.77539
0.7793
0.7793
0.78516
0.7793
0.76953
0.76563
0.76563
0.75977
0.75977
0.75977
0.75977
0.75977
0.76563
0.76563
0.76953
0.77539
0.7793
0.78516
0.78906
0.78906
0.79883
0.79883
0.79883
0.80469
0.80469
0.79883
0.79883
0.79883
0.79883
0.79883
0.79492
0.79492
0.79492
0.79492
0.78906
0.78906
0.78906
0.78516
0.76953
0.75
0.73047
0.71484
0.70508
0.70508
0.74023
0.77539
0.78516
0.77539
0.76563
0.76563
0.7793
0.79492
0.81055
0.81055
0.81055
0.80469
0.79883
0.79883
0.79883
0.79492
0.78906
0.78906
0.79492
0.70508
0.47461
0.22461
0.16602
0.52539
0.97461
1.2285
1.2891
1.25
1.1797
1.1191
1.084
1.0352
0.93945
0.83008
0.74414
0.70508
0.68555
0.67578
0.66406
0.66016
0.6543
0.65039
0.64063
0.625
0.61523
0.5957
0.58398
0.56055
0.53906
0.50977
0.48438
0.46094
0.43945
0.42969
0.42969
0.43555
0.45508
0.48047
0.50977
0.54492
0.58398
0.625
0.66406
0.69531
0.7207
0.74023
0.75391
0.75977
0.76563
0.76563
0.76563
0.76563
0.75977
0.75391
0.75391
0.74414
0.74414
0.74414
0.74414
0.74414
0.74414
0.75391
0.75391
0.75977
0.76563
0.76953
0.77539
0.77539
0.7793
0.7793
0.77539
0.77539
0.7793
0.7793
0.7793
0.7793
0.7793
0.77539
0.76953
0.76953
0.76953
0.76563
0.76563
0.76953
0.76563
0.75
0.73047
0.70508
0.69531
0.68555
0.67969
0.7207
0.75
0.76563
0.75391
0.74414
0.75391
0.76563
0.7793
0.78906
0.79883
0.79492
0.78906
0.78906
0.78516
0.78516
0.78516
0.7793
0.7793
0.78516
0.69922
0.48047
0.23438
0.17578
0.5293
0.98047
1.2246
1.2852
1.2441
1.1738
1.1152
1.0801
1.0293
0.93945
0.82422
0.74023
0.69922
0.67969
0.67578
0.66992
0.66406
0.6543
0.65039
0.64063
0.62891
0.61523
0.60547
0.58398
0.56445
0.53906
0.51563
0.49023
0.4707
0.45508
0.44531
0.43945
0.44922
0.4707
0.49414
0.52539
0.56055
0.5957
0.63477
0.66992
0.69922
0.73047
0.74414
0.75977
0.76563
0.76953
0.7793
0.7793
0.76953
0.76563
0.76563
0.75977
0.75977
0.75977
0.75977
0.75391
0.75977
0.75977
0.76563
0.76953
0.7793
0.78516
0.78516
0.78906
0.79492
0.79883
0.79883
0.79883
0.79883
0.79883
0.79883
0.79883
0.79492
0.79492
0.79492
0.79492
0.79492
0.79492
0.78906
0.78906
0.78906
0.7793
0.75391
0.73438
0.7207
0.70508
0.69922
0.7207
0.75977
0.7793
0.76953
0.75391
0.75391
0.76563
0.78516
0.79883
0.80469
0.79883
0.79883
0.79492
0.78906
0.78906
0.78906
0.78516
0.78516
0.78516
0.73438
0.55469
0.28516
0.16602
0.39453
0.84961
1.1699
1.2734
1.2793
1.1934
1.125
1.0801
1.0352
0.95508
0.83984
0.74414
0.69531
0.67578
0.66016
0.6543
0.65039
0.64453
0.63477
0.62891
0.61914
0.60547
0.58984
0.57422
0.55469
0.53516
0.50977
0.49023
0.46484
0.44531
0.42969
0.42969
0.43555
0.44922
0.47461
0.50977
0.53906
0.57422
0.61523
0.6543
0.68945
0.71484
0.73438
0.75391
0.76563
0.76953
0.76953
0.76953
0.76953
0.76563
0.76563
0.75391
0.75391
0.75391
0.75391
0.75391
0.75977
0.75977
0.76563
0.76953
0.7793
0.7793
0.78516
0.78516
0.78906
0.78906
0.78906
0.79492
0.78906
0.78906
0.78906
0.78906
0.78906
0.78906
0.78906
0.78516
0.78516
0.78516
0.78516
0.7793
0.77539
0.75977
0.73438
0.71484
0.69922
0.68945
0.69531
0.72461
0.75977
0.76953
0.75977
0.75391
0.75391
0.76953
0.78516
0.79883
0.79883
0.79883
0.78906
0.78906
0.78906
0.78516
0.7793
0.77539
0.77539
0.76953
0.69922
0.49023
0.24023
0.17969
0.50977
0.95508
1.209
1.2695
1.2344
1.1641
1.1035
1.0703
1.0293
0.93945
0.82031
0.73047
0.68945
0.66992
0.6543
0.65039
0.64453
0.64063
0.62891
0.61523
0.60547
0.5957
0.58008
0.56445
0.54492
0.51953
0.49414
0.47461
0.45508
0.43555
0.42578
0.42578
0.42969
0.44922
0.48047
0.51563
0.55078
0.58984
0.62891
0.66406
0.69922
0.72461
0.74023
0.75977
0.76563
0.76953
0.77539
0.77539
0.76953
0.76563
0.75977
0.75391
0.75391
0.75391
0.75
0.75
0.75391
0.75391
0.75977
0.76563
0.76953
0.77539
0.7793
0.78516
0.78906
0.78906
0.79883
0.79883
0.79883
0.79883
0.79883
0.79883
0.79883
0.79883
0.79883
0.79883
0.79883
0.79492
0.79492
0.78906
0.78516
0.76953
0.74414
0.72461
0.71484
0.70508
0.70508
0.74023
0.76953
0.7793
0.76953
0.75977
0.76563
0.77539
0.79492
0.80469
0.81055
0.80469
0.80469
0.79883
0.79883
0.79492
0.79492
0.78906
0.78906
0.7793
0.69922
0.4707
0.22461
0.16992
0.55078
1.0039
1.2441
1.2988
1.2539
1.1836
1.125
1.084
1.0293
0.92969
0.81055
0.73047
0.69531
0.67578
0.66992
0.66016
0.6543
0.65039
0.64063
0.62891
0.61914
0.60547
0.58984
0.57422
0.55469
0.5293
0.50586
0.48047
0.46094
0.43945
0.42969
0.42969
0.43945
0.45508
0.48047
0.51563
0.55469
0.5957
0.63477
0.67578
0.70508
0.73047
0.75
0.76563
0.76953
0.77539
0.77539
0.76953
0.76953
0.76953
0.76563
0.75977
0.75391
0.75391
0.75391
0.75391
0.75391
0.75977
0.76563
0.76953
0.77539
0.7793
0.78516
0.78516
0.78516
0.78516
0.78906
0.78906
0.78906
0.79492
0.78906
0.78906
0.78906
0.78906
0.78516
0.78516
0.78516
0.78516
0.78516
0.78516
0.7793
0.76953
0.75
0.7207
0.70508
0.69531
0.69531
0.72461
0.76563
0.7793
0.76953
0.75977
0.75977
0.76953
0.7793
0.79883
0.79883
0.79883
0.79492
0.79492
0.78906
0.78906
0.78516
0.78516
0.7793
0.77539
0.70898
0.49414
0.24609
0.17969
0.49023
0.93945
1.2051
1.2695
1.2344
1.1641
1.1094
1.0742
1.0293
0.94531
0.83008
0.73438
0.69531
0.67578
0.66992
0.66016
0.6543
0.65039
0.64063
0.63477
0.625
0.60938
0.5957
0.58008
0.55469
0.53516
0.50977
0.48438
0.46094
0.44531
0.43555
0.43555
0.43555
0.45508
0.48047
0.51563
0.54492
0.58398
0.61914
0.66016
0.69531
0.72461
0.74414
0.75977
0.76563
0.76563
0.76953
0.76563
0.76563
0.75977
0.75977
0.75391
0.74414
0.74414
0.74414
0.74414
0.75
0.75391
0.75391
0.75977
0.76563
0.76563
0.76953
0.77539
0.7793
0.7793
0.7793
0.7793
0.78516
0.78516
0.78516
0.78516
0.78516
0.78516
0.78516
0.78516
0.78516
0.78516
0.7793
0.7793
0.7793
0.77539
0.75977
0.74023
0.71484
0.70508
0.69531
0.69531
0.7207
0.75977
0.7793
0.76953
0.75977
0.75977
0.76953
0.78516
0.79883
0.80469
0.79883
0.79883
0.78906
0.78906
0.78906
0.78516
0.78516
0.78516
0.78516
0.73047
0.53906
0.2793
0.17969
0.43945
0.90039
1.1992
1.2891
1.2637
1.1895
1.125
1.0898
1.0449
0.95898
0.83984
0.74414
0.69922
0.68945
0.67578
0.66992
0.66016
0.6543
0.65039
0.64063
0.63477
0.625
0.60547
0.58984
0.57031
0.55078
0.52539
0.5
0.47461
0.46094
0.44922
0.44531
0.44922
0.46094
0.49023
0.51953
0.55469
0.58984
0.62891
0.66406
0.69922
0.73047
0.75
0.76563
0.76953
0.7793
0.7793
0.7793
0.7793
0.76953
0.76563
0.75977
0.75977
0.75977
0.75391
0.75977
0.75977
0.75977
0.76563
0.76953
0.77539
0.7793
0.78516
0.78516
0.78906
0.79492
0.79883
0.79883
0.79883
0.79883
0.79883
0.79883
0.79883
0.79883
0.79883
0.79883
0.79492
0.79492
0.78906
0.78906
0.78906
0.78906
0.78516
0.76953
0.74414
0.7207
0.71484
0.70508
0.70508
0.73438
0.76953
0.78516
0.76953
0.75977
0.76563
0.77539
0.78906
0.80469
0.80469
0.79883
0.79883
0.79883
0.79492
0.79492
0.78906
0.78906
0.78516
0.78906
0.70508
0.48438
0.24023
0.17969
0.5293
0.97461
1.2188
1.2734
1.2402
1.1699
1.1152
1.0742
1.0293
0.93945
0.82031
0.73438
0.69922
0.68555
0.67578
0.66992
0.66406
0.66016
0.65039
0.64063
0.62891
0.61914
0.60938
0.5957
0.57422
0.55078
0.52539
0.5
0.47461
0.46094
0.44922
0.44531
0.44922
0.4707
0.49414
0.52539
0.56055
0.59961
0.63477
0.67578
0.70508
0.73047
0.75
0.75977
0.76563
0.76953
0.77539
0.7793
0.76953
0.76563
0.75977
0.75391
0.75
0.74414
0.74414
0.74414
0.74414
0.75391
0.75977
0.76563
0.76563
0.76953
0.77539
0.7793
0.7793
0.7793
0.7793
0.78516
0.78516
0.78516
0.78516
0.78516
0.78516
0.7793
0.7793
0.7793
0.7793
0.77539
0.76953
0.76953
0.76953
0.76953
0.75977
0.74023
0.7207
0.69922
0.68945
0.68555
0.68945
0.72461
0.75391
0.76563
0.75
0.74414
0.75
0.76563
0.7793
0.78906
0.78906
0.78516
0.78516
0.78516
0.78516
0.7793
0.77539
0.76953
0.76953
0.77539
0.6543
0.4043
0.19531
0.17969
0.66992
1.084
1.2598
1.2793
1.2188
1.1445
1.0938
1.0586
1
0.9043
0.78906
0.7207
0.68945
0.67578
0.66992
0.66406
0.66016
0.6543
0.65039
0.64063
0.62891
0.61523
0.60547
0.58398
0.56445
0.54492
0.51953
0.5
0.48047
0.46484
0.46094
0.45508
0.46484
0.49023
0.51563
0.54492
0.58008
0.60938
0.65039
0.68555
0.71484
0.74023
0.75977
0.76953
0.77539
0.7793
0.7793
0.78516
0.7793
0.77539
0.76953
0.75977
0.75977
0.75391
0.75391
0.75391
0.75391
0.75391
0.75977
0.76563
0.76953
0.77539
0.7793
0.7793
0.78516
0.78906
0.78906
0.79492
0.79492
0.79492
0.79492
0.78906
0.78906
0.78906
0.78906
0.78906
0.78906
0.78906
0.78906
0.78906
0.78516
0.7793
0.75391
0.73047
0.71484
0.69922
0.69531
0.70898
0.74414
0.76953
0.77539
0.75977
0.75391
0.75977
0.77539
0.79492
0.80469
0.80469
0.79883
0.79883
0.79492
0.78906
0.78906
0.78906
0.78516
0.78516
0.76563
0.64453
0.40039
0.18945
0.17969
0.67578
1.084
1.2598
1.2891
1.2285
1.1602
1.1035
1.0703
1.0098
0.90039
0.78516
0.7207
0.69531
0.67969
0.66992
0.66992
0.66016
0.6543
0.65039
0.63477
0.625
0.61523
0.5957
0.58008
0.56055
0.53906
0.51563
0.49023
0.46484
0.45508
0.44531
0.44531
0.45508
0.47461
0.50586
0.53906
0.57422
0.61523
0.6543
0.68945
0.7207
0.74023
0.75977
0.76953
0.7793
0.7793
0.7793
0.7793
0.77539
0.76953
0.76563
0.75977
0.75977
0.75391
0.75391
0.75391
0.75391
0.75977
0.76563
0.76953
0.7793
0.7793
0.7793
0.78516
0.78516
0.78906
0.78906
0.78906
0.78906
0.78906
0.78906
0.78906
0.78906
0.78906
0.78906
0.78906
0.78906
0.78906
0.78516
0.78516
0.7793
0.7793
0.76563
0.74023
0.7207
0.70508
0.69922
0.69531
0.71484
0.75
0.76953
