0.46094
0.44922
0.46094
0.46484
0.4707
0.46484
0.45508
0.45508
0.45508
0.45508
0.43945
0.44922
0.45508
0.45508
0.44922
0.44922
0.43945
0.44531
0.43555
0.43945
0.44531
0.43555
0.43945
0.45508
0.45508
0.42969
0.42969
0.43945
0.45508
0.44531
0.44922
0.44922
0.45508
0.46094
0.48438
0.50586
0.5
0.5293
0.54492
0.50977
0.5
0.47461
0.45508
0.43945
0.44531
0.44922
0.43555
0.41602
0.41602
0.41992
0.42578
0.42969
0.45508
0.56055
0.70508
0.91016
0.91406
0.099609
-0.49805
-0.375
0.10547
0.35938
0.46094
0.49414
0.50586
0.51953
0.52539
0.53516
0.54492
0.55078
0.54492
0.53516
0.5293
0.56055
0.58008
0.5957
0.58398
0.57422
0.5957
0.61914
0.64063
0.66016
0.66992
0.67969
0.68945
0.69922
0.68945
0.69531
0.66992
0.64063
0.5957
0.56445
0.54492
0.51953
0.5
0.47461
0.46484
0.46094
0.46094
0.45508
0.45508
0.46484
0.4707
0.44922
0.45508
0.44922
0.46094
0.46094
0.46484
0.4707
0.46094
0.46484
0.45508
0.45508
0.44922
0.45508
0.44922
0.45508
0.45508
0.45508
0.43945
0.44531
0.44922
0.43945
0.44531
0.43945
0.44922
0.44922
0.44531
0.44531
0.43555
0.43555
0.44531
0.45508
0.44922
0.45508
0.47461
0.49414
0.50586
0.51563
0.55078
0.55469
0.50586
0.49023
0.46094
0.45508
0.44922
0.43555
0.43555
0.42578
0.41602
0.41992
0.42969
0.42969
0.42969
0.44922
0.55078
0.70898
0.88867
0.67578
-0.064453
-0.49805
-0.39844
0.13477
0.40039
0.48047
0.50586
0.52539
0.53516
0.54492
0.54492
0.55469
0.55469
0.57422
0.56445
0.57031
0.58008
0.58984
0.58398
0.5957
0.60938
0.62891
0.64063
0.65039
0.66992
0.68555
0.68945
0.70898
0.72461
0.73047
0.70508
0.68945
0.66016
0.61523
0.57422
0.53906
0.52539
0.49414
0.48438
0.48047
0.48047
0.48047
0.4707
0.46484
0.46484
0.45508
0.46094
0.46484
0.45508
0.46484
0.46484
0.46484
0.4707
0.45508
0.46094
0.4707
0.46484
0.46484
0.46484
0.45508
0.44922
0.45508
0.45508
0.45508
0.46094
0.45508
0.44531
0.43945
0.44531
0.43945
0.44922
0.44922
0.44531
0.44531
0.44531
0.44922
0.44922
0.45508
0.46484
0.45508
0.44922
0.43945
0.4707
0.49414
0.50586
0.51953
0.56445
0.57422
0.50977
0.48438
0.45508
0.44922
0.44922
0.44531
0.42969
0.41992
0.41602
0.41992
0.42969
0.43555
0.44531
0.4707
0.58008
0.73438
0.86914
0.55078
-0.21484
-0.49805
-0.26953
0.21484
0.41992
0.48438
0.50586
0.51953
0.5293
0.53516
0.53906
0.55078
0.55078
0.57031
0.57422
0.57422
0.57031
0.57422
0.58398
0.58984
0.60547
0.62891
0.63477
0.62891
0.66016
0.68555
0.68945
0.69922
0.71484
0.70508
0.68945
0.66406
0.65039
0.60547
0.56445
0.53516
0.50586
0.5
0.48047
0.46094
0.46094
0.46484
0.44922
0.45508
0.44531
0.44922
0.43945
0.44531
0.45508
0.46094
0.45508
0.45508
0.46094
0.46484
0.45508
0.45508
0.45508
0.45508
0.43555
0.43945
0.43945
0.45508
0.46484
0.44922
0.42969
0.43945
0.43555
0.42969
0.43555
0.44531
0.43555
0.42969
0.44531
0.45508
0.44531
0.43945
0.46094
0.44922
0.43555
0.43945
0.44531
0.44922
0.46094
0.44922
0.45508
0.46094
0.48047
0.50586
0.50586
0.5293
0.56445
0.54492
0.50977
0.48438
0.46094
0.45508
0.44922
0.44922
0.42969
0.42969
0.43945
0.42969
0.42578
0.43945
0.44922
0.49023
0.5957
0.75977
0.875
0.51953
-0.26367
-0.49805
-0.19922
0.24023
0.42969
0.5
0.50977
0.51953
0.52539
0.53516
0.53906
0.53516
0.54492
0.55469
0.56445
0.54492
0.56055
0.58398
0.58398
0.58398
0.5957
0.59961
0.625
0.64453
0.66016
0.67578
0.68555
0.68945
0.68555
0.68945
0.66992
0.66406
0.64453
0.58984
0.56055
0.5293
0.51953
0.5
0.4707
0.45508
0.45508
0.46094
0.46094
0.4707
0.43945
0.45508
0.47461
0.48047
0.4707
0.47461
0.45508
0.45508
0.44922
0.47461
0.4707
0.46484
0.44922
0.45508
0.43945
0.44922
0.46094
0.46484
0.43945
0.43945
0.44531
0.44531
0.43555
0.42969
0.44531
0.42969
0.43945
0.43945
0.43945
0.43945
0.44531
0.44922
0.45508
0.43555
0.43945
0.44531
0.44922
0.44922
0.45508
0.46094
0.47461
0.5
0.50586
0.53906
0.54492
0.51563
0.49023
0.46484
0.45508
0.44922
0.42969
0.42578
0.41992
0.42969
0.41992
0.42578
0.42969
0.42969
0.45508
0.56055
0.70508
0.90039
0.9043
0.041016
-0.49805
-0.375
0.11133
0.38477
0.49023
0.50586
0.49414
0.50586
0.51563
0.5293
0.54492
0.55469
0.54492
0.53906
0.56055
0.56445
0.57422
0.58984
0.58984
0.59961
0.60938
0.625
0.64063
0.66016
0.68555
0.69531
0.69531
0.69922
0.69531
0.68945
0.67578
0.64453
0.60547
0.57031
0.55078
0.51953
0.5
0.48047
0.46094
0.45508
0.46484
0.4707
0.46094
0.45508
0.45508
0.45508
0.45508
0.46094
0.46484
0.48047
0.48047
0.46094
0.45508
0.45508
0.46484
0.46094
0.46484
0.45508
0.45508
0.45508
0.45508
0.43945
0.44531
0.45508
0.45508
0.45508
0.44922
0.44531
0.46484
0.45508
0.44531
0.44922
0.45508
0.45508
0.45508
0.44922
0.44531
0.45508
0.44922
0.4707
0.48438
0.50586
0.49414
0.53516
0.56055
0.54492
0.51563
0.47461
0.45508
0.43945
0.45508
0.44922
0.43945
0.43555
0.42969
0.41992
0.42578
0.43555
0.43555
0.50977
0.63477
0.83008
0.89453
0.36523
-0.49805
-0.49805
-0.099609
0.29492
0.46094
0.5
0.51953
0.52539
0.55078
0.55469
0.55078
0.55078
0.55469
0.57422
0.57422
0.57422
0.58398
0.58008
0.5957
0.60547
0.63477
0.64453
0.65039
0.6543
0.66992
0.68945
0.7207
0.72461
0.71484
0.73047
0.68945
0.66406
0.63477
0.59961
0.57422
0.54492
0.50977
0.5
0.48047
0.47461
0.4707
0.4707
0.45508
0.46094
0.46094
0.46094
0.46094
0.46484
0.48047
0.48047
0.46094
0.4707
0.47461
0.4707
0.46094
0.4707
0.48047
0.45508
0.46484
0.46094
0.45508
0.46094
0.45508
0.44531
0.45508
0.43945
0.45508
0.44922
0.44531
0.45508
0.45508
0.45508
0.45508
0.45508
0.44531
0.45508
0.44531
0.43945
0.45508
0.4707
0.48047
0.50586
0.50586
0.5293
0.57031
0.54492
0.50977
0.48047
0.45508
0.44531
0.43555
0.43945
0.42969
0.42969
0.42969
0.42578
0.43555
0.43945
0.42578
0.41992
0.56055
0.72461
0.85938
0.54492
-0.26953
-0.49805
-0.28906
0.20508
0.41602
0.49023
0.51953
0.52539
0.5293
0.52539
0.53516
0.5293
0.55078
0.56055
0.57031
0.57422
0.57422
0.57031
0.58398
0.60547
0.60938
0.59961
0.61523
0.63477
0.6543
0.67969
0.69922
0.70508
0.69922
0.68555
0.67969
0.67578
0.63477
0.5957
0.55078
0.53516
0.50977
0.5
0.48047
0.47461
0.44922
0.45508
0.45508
0.44531
0.45508
0.45508
0.45508
0.45508
0.44922
0.45508
0.45508
0.46094
0.44922
0.44922
0.45508
0.45508
0.46094
0.44531
0.43555
0.43945
0.44531
0.44922
0.45508
0.42969
0.42969
0.43555
0.43555
0.42969
0.43555
0.42969
0.44531
0.43555
0.43945
0.44531
0.42969
0.42969
0.43555
0.43555
0.44922
0.45508
0.48047
0.49023
0.5
0.53906
0.55078
0.50586
0.49023
0.45508
0.44531
0.43555
0.43945
0.44531
0.41602
0.41016
0.41016
0.41602
0.42969
0.42969
0.44922
0.52539
0.64453
0.82031
0.85938
0.16016
-0.49805
-0.49805
0.03125
0.32422
0.44531
0.48047
0.5
0.51563
0.52539
0.5293
0.52539
0.52539
0.53906
0.55078
0.56055
0.55078
0.55078
0.56055
0.57422
0.57422
0.5957
0.61523
0.625
0.64063
0.65039
0.64453
0.66992
0.68945
0.68945
0.67578
0.65039
0.62891
0.5957
0.57031
0.53906
0.51953
0.48438
0.48047
0.4707
0.44922
0.43945
0.44531
0.44922
0.46094
0.4707
0.45508
0.43945
0.44922
0.44922
0.45508
0.45508
0.44922
0.46094
0.46484
0.45508
0.45508
0.45508
0.44531
0.43945
0.43555
0.42969
0.44531
0.43945
0.43555
0.42969
0.42969
0.43555
0.42969
0.44922
0.45508
0.43555
0.42578
0.42969
0.43555
0.42969
0.43945
0.44531
0.45508
0.4707
0.49023
0.49023
0.51563
0.54492
0.5293
0.5
0.48047
0.45508
0.44922
0.43945
0.43555
0.42969
0.42578
0.42969
0.42969
0.42578
0.41602
0.42578
0.48438
0.5957
0.78906
0.91406
0.5293
-0.28906
-0.49805
-0.17969
0.24023
0.42969
0.47461
0.5
0.50586
0.52539
0.52539
0.5293
0.52539
0.53906
0.55078
0.54492
0.55078
0.55469
0.56055
0.57031
0.58984
0.5957
0.60938
0.63477
0.64453
0.66406
0.66992
0.67578
0.68945
0.68945
0.67969
0.66406
0.65039
0.61914
0.58984
0.56055
0.52539
0.5
0.49023
0.46484
0.45508
0.45508
0.46094
0.46484
0.4707
0.46094
0.44922
0.45508
0.46484
0.46484
0.48438
0.47461
0.45508
0.44922
0.45508
0.46484
0.46094
0.46094
0.45508
0.45508
0.44922
0.45508
0.45508
0.45508
0.43555
0.43945
0.44531
0.45508
0.44922
0.44531
0.44922
0.42969
0.45508
0.44922
0.44531
0.44922
0.44531
0.43945
0.44531
0.4707
0.48047
0.5
0.50586
0.5293
0.56055
0.54492
0.51953
0.48047
0.44531
0.42969
0.43945
0.43945
0.43555
0.41992
0.41602
0.41992
0.43555
0.43945
0.45508
0.50586
0.61523
0.82422
0.89453
0.33008
-0.49805
-0.49805
-0.074219
0.31055
0.45508
0.49414
0.50977
0.5293
0.5293
0.53516
0.53906
0.55469
0.55469
0.55469
0.56445
0.56445
0.56445
0.57422
0.58008
0.5957
0.60938
0.625
0.64063
0.6543
0.66992
0.68945
0.69922
0.68945
0.70508
0.68945
0.68945
0.67578
0.61914
0.58984
0.55469
0.51953
0.5
0.48438
0.48047
0.46094
0.46484
0.44922
0.44531
0.45508
0.47461
0.4707
0.45508
0.45508
0.46484
0.47461
0.46484
0.45508
0.45508
0.46484
0.46094
0.46484
0.46094
0.4707
0.46094
0.44922
0.45508
0.44531
0.43945
0.44922
0.43945
0.44531
0.44922
0.44531
0.42969
0.44922
0.43945
0.44531
0.44922
0.43555
0.44531
0.44922
0.45508
0.46484
0.47461
0.5
0.50586
0.53516
0.57031
0.51953
0.49414
0.46094
0.43945
0.42969
0.44531
0.43945
0.42969
0.41992
0.42969
0.43945
0.44531
0.43555
0.44922
0.50586
0.625
0.80469
0.85547
0.25977
-0.49805
-0.49805
-0.044922
0.33594
0.4707
0.50977
0.52539
0.53516
0.53906
0.55078
0.55078
0.56055
0.55078
0.57031
0.58398
0.57422
0.57422
0.58984
0.60547
0.60938
0.61914
0.62891
0.64453
0.65039
0.67578
0.69922
0.71484
0.72461
0.7207
0.71484
0.69531
0.66406
0.63477
0.60547
0.57422
0.55078
0.51953
0.5
0.48438
0.47461
0.4707
0.4707
0.47461
0.46094
0.4707
0.4707
0.47461
0.47461
0.48047
0.49023
0.4707
0.47461
0.48438
0.47461
0.47461
0.48047
0.45508
0.46094
0.44922
0.45508
0.4707
0.46094
0.43555
0.45508
0.46094
0.46484
0.44922
0.43945
0.44922
0.45508
0.44531
0.44922
0.45508
0.44922
0.45508
0.45508
0.46094
0.43555
0.43945
0.44922
0.47461
0.49023
0.50586
0.51563
0.55469
0.53906
0.51563
0.48438
0.45508
0.43945
0.43555
0.43555
0.43555
0.42969
0.41992
0.41602
0.42578
0.42578
0.43555
0.46484
0.56055
0.69922
0.85938
0.6543
-0.064453
-0.49805
-0.34375
0.15625
0.41016
0.49414
0.5
0.50586
0.52539
0.53906
0.53906
0.53906
0.53516
0.56055
0.55469
0.56445
0.57422
0.57422
0.57422
0.58398
0.5957
0.61523
0.62891
0.63477
0.64453
0.66992
0.68555
0.68945
0.69922
0.68945
0.66992
0.66406
0.64453
0.59961
0.56445
0.53516
0.51563
0.49023
0.48438
0.48047
0.46094
0.45508
0.46484
0.4707
0.44922
0.44531
0.46484
0.47461
0.4707
0.47461
0.4707
0.48047
0.47461
0.4707
0.46094
0.46484
0.46094
0.45508
0.45508
0.46484
0.45508
0.45508
0.45508
0.43945
0.43945
0.45508
0.44922
0.44531
0.43945
0.44922
0.45508
0.45508
0.44531
0.44922
0.42969
0.43555
0.45508
0.45508
0.45508
0.4707
0.49023
0.5
0.49023
0.5293
0.56445
0.5293
0.49023
0.46484
0.4707
0.44922
0.44922
0.43555
0.42969
0.42578
0.42969
0.42969
0.42969
0.43555
0.46094
0.55078
0.66406
0.86914
0.91406
0.29102
-0.49805
-0.47852
0.019531
0.33984
0.44922
0.48047
0.50586
0.51953
0.52539
0.53906
0.53516
0.54492
0.53906
0.54492
0.55078
0.56055
0.57031
0.57422
0.58398
0.58008
0.60547
0.61523
0.61914
0.64063
0.6543
0.66406
0.67969
0.68555
0.68945
0.68555
0.6543
0.62891
0.59961
0.57031
0.53906
0.51953
0.49414
0.4707
0.47461
0.46094
0.45508
0.44922
0.45508
0.46094
0.46484
0.44531
0.42969
0.41602
0.41016
0.4043
0.43555
0.44531
0.43945
0.44922
0.45508
0.46094
0.44922
0.45508
0.43945
0.43555
0.43555
0.44531
0.44531
0.44922
0.45508
0.45508
0.45508
0.45508
0.44531
0.43945
0.44531
0.45508
0.45508
0.45508
0.45508
0.45508
0.47461
0.48438
0.49414
0.51563
0.54492
0.55078
0.51563
0.49023
0.45508
0.43945
0.44922
0.44922
0.43555
0.41602
0.41992
0.42969
0.42578
0.42969
0.42969
0.46094
0.57031
0.73438
0.9043
0.68945
-0.070313
-0.49805
-0.36914
0.16016
0.40039
0.47461
0.50586
0.52539
0.54492
0.55078
0.55078
0.55078
0.55078
0.56055
0.55469
0.56445
0.58008
0.5957
0.5957
0.59961
0.60938
0.60547
0.64453
0.66016
0.67578
0.68945
0.70508
0.71484
0.71484
0.70508
0.68945
0.66992
0.65039
0.60938
0.57422
0.55078
0.52539
0.49414
0.48047
0.48047
0.4707
0.45508
0.46484
0.4707
0.46094
0.46484
0.45508
0.46094
0.48047
0.48047
0.47461
0.47461
0.48047
0.48438
0.45508
0.45508
0.46094
0.45508
0.45508
0.46484
0.45508
0.44922
0.45508
0.45508
0.44922
0.45508
0.45508
0.44922
0.44922
0.44922
0.45508
0.43555
0.42969
0.43555
0.43945
0.45508
0.45508
0.45508
0.46094
0.49023
0.51563
0.55078
0.54492
0.5293
0.50977
0.48047
0.46094
0.45508
0.44922
0.43555
0.42969
0.42578
0.42969
0.42969
0.42969
0.42969
0.46094
0.51953
0.63477
0.84961
0.88867
0.2793
-0.49805
-0.49805
-0.0039063
0.32422
0.45508
0.48438
0.50586
0.51563
0.53516
0.52539
0.52539
0.53516
0.5293
0.54492
0.52539
0.55469
0.57422
0.56055
0.55469
0.58398
0.58984
0.5957
0.625
0.64453
0.66016
0.66992
0.68555
0.68555
0.68945
0.67578
0.66992
0.62891
0.60547
0.5957
0.53906
0.50586
0.49023
0.4707
0.45508
0.45508
0.46094
0.44922
0.45508
0.45508
0.42969
0.43555
0.43945
0.46094
0.46484
0.44531
0.45508
0.45508
0.4707
0.46484
0.46094
0.46484
0.45508
0.45508
0.44531
0.44531
0.44922
0.45508
0.42969
0.42969
0.42969
0.42969
0.42969
0.41992
0.41602
0.42578
0.42578
0.42969
0.42969
0.42969
0.42578
0.45508
0.48047
0.48438
0.49023
0.51953
0.52539
0.49023
0.45508
0.43555
0.42969
0.42969
0.42578
0.41602
0.41016
0.38477
0.38477
0.4043
0.41016
0.40039
0.46484
0.58008
0.81445
0.93945
0.54492
-0.33008
-0.49805
-0.20508
0.21484
0.39453
0.46484
0.48047
0.48438
0.49414
0.50586
0.50586
0.51563
0.5293
0.53516
0.52539
0.52539
0.54492
0.55469
0.57031
0.60938
0.61523
0.5957
0.61914
0.64453
0.66016
0.68555
0.69531
0.68945
0.69922
0.68945
0.67578
0.64453
0.61914
0.58398
0.55469
0.5293
0.5
0.49023
0.48438
0.49023
0.48047
0.47461
0.46484
0.45508
0.44531
0.45508
0.46094
0.47461
0.48047
0.4707
0.4707
0.4707
0.4707
0.47461
0.48047
0.48047
0.47461
0.4707
0.4707
0.4707
0.4707
0.47461
0.4707
0.46484
0.47461
0.45508
0.45508
0.46094
0.45508
0.46484
0.4707
0.45508
0.4707
0.48438
0.49414
0.50586
0.51563
0.55078
0.56445
0.53906
0.52539
0.5
0.49414
0.48047
0.46094
0.45508
0.43555
0.43555
0.43945
0.44922
0.44922
0.43555
0.46094
0.56055
0.73047
0.95508
0.96484
0.16992
-0.49805
-0.49414
0.054688
0.37109
0.4707
0.49414
0.51563
0.52539
0.53906
0.55078
0.56445
0.57031
0.57031
0.57031
0.58008
0.58398
0.59961
0.60938
0.61523
0.60938
0.62891
0.64453
0.66016
0.67969
0.69531
0.70898
0.7207
0.73047
0.71484
0.70898
0.68555
0.64453
0.61523
0.58008
0.54492
0.50977
0.49414
0.49023
0.48438
0.47461
0.46094
0.46484
0.44922
0.44922
0.45508
0.46094
0.45508
0.4707
0.47461
0.45508
0.45508
0.46094
0.44531
0.45508
0.44922
0.44531
0.44531
0.43945
0.43555
0.43945
0.44531
0.43945
0.44922
0.4707
0.45508
0.45508
0.42969
0.41016
0.42969
0.42969
0.43555
0.44531
0.53516
0.61914
0.48438
0.44531
0.48047
0.53516
0.51563
0.48047
0.45508
0.42969
0.43945
0.42969
0.42578
0.41602
0.41016
0.41992
0.4043
0.44531
0.4707
0.43555
0.42969
0.55078
0.58398
0.76563
0.83008
0.25586
-0.49805
-0.49805
-0.09375
0.2793
0.43555
0.49023
0.52539
0.5
0.54492
0.51953
0.50586
0.51563
0.50977
0.51953
0.54492
0.55078
0.57031
0.60938
0.66992
0.61523
0.5957
0.56055
0.58398
0.61523
0.62891
0.64453
0.66992
0.67969
0.68555
0.67969
0.68555
0.63477
0.60938
0.58008
0.53906
0.50586
0.48438
0.46484
0.4707
0.48047
0.44531
0.43945
0.49023
0.51563
0.40039
0.38477
0.40039
0.42578
0.42969
0.43555
0.42969
0.45508
0.45508
0.44531
0.44531
0.44922
0.43945
0.47461
0.55078
0.47461
0.37109
0.38477
0.38477
0.41992
0.42578
0.41016
0.43555
0.44922
0.44922
0.44922
0.45508
0.42969
0.43945
0.48438
0.59961
0.61523
0.43555
0.41016
0.48438
0.5
0.48438
0.46484
0.43555
0.42969
0.42578
0.43555
0.42969
0.41016
0.4043
0.41016
0.41602
0.41602
0.42969
0.46094
0.57031
0.71484
0.87891
0.91016
0.27539
-0.48828
-0.49805
0.0058594
0.30469
0.44531
0.50586
0.52539
0.5293
0.5
0.4707
0.49023
0.50586
0.50586
0.51563
0.52539
0.53516
0.54492
0.55078
0.56055
0.57422
0.58398
0.57422
0.59961
0.61914
0.62891
0.67578
0.66406
0.65039
0.6543
0.62891
0.61523
0.59961
0.57031
0.5293
0.50586
0.5
0.47461
0.43945
0.5
0.51563
0.47461
0.43945
0.39453
0.38086
0.4043
0.42969
0.43555
0.42578
0.43555
0.45508
0.4707
0.43555
0.42969
0.43945
0.43945
0.44531
0.43555
0.43945
0.44922
0.43945
0.45508
0.42969
0.42969
0.41992
0.41016
0.41602
0.42578
0.41992
0.41992
0.43555
0.44922
0.4707
0.49023
0.51953
0.50977
0.52539
0.49023
0.40039
0.39063
0.40039
0.40039
0.40039
0.38477
0.38477
0.38086
0.39063
0.4043
0.4043
0.46094
0.5957
0.83398
0.96484
0.59961
-0.25
-0.49805
-0.22852
0.18945
0.38477
0.45508
0.47461
0.49414
0.50586
0.50977
0.51563
0.55469
0.57422
0.5957
0.56055
0.5293
0.55078
0.54492
0.56055
0.57422
0.5957
0.60938
0.61914
0.65039
0.67578
0.68945
0.69922
0.70508
0.68945
0.73047
0.75977
0.67578
0.58398
0.51953
0.51563
0.48438
0.45508
0.44922
0.44531
0.44922
0.43945
0.43555
0.44922
0.46094
0.54492
0.55078
0.4043
0.39453
0.43945
0.43945
0.41992
0.42969
0.44531
0.45508
0.45508
0.44531
0.46094
0.50586
0.53516
0.5
0.42578
0.38477
0.38086
0.41016
0.41602
0.43555
0.42969
0.43555
0.44531
0.4707
0.50586
0.5
0.52539
0.67578
0.68555
0.47461
0.44922
0.42578
0.41016
0.41602
0.42578
0.41016
0.42578
0.42969
0.43945
0.44531
0.49023
0.54492
0.58008
0.64453
0.83008
1.0098
0.625
-0.19336
-0.49805
-0.31836
0.18555
0.42578
0.48438
0.51953
0.55469
0.58984
0.75391
0.86914
0.5957
0.46094
0.45508
0.5
0.53906
0.56055
0.5957
0.61914
0.64063
0.6543
0.67578
0.71484
0.84375
0.86523
0.83984
0.84375
0.74023
0.77539
0.64453
0.65039
0.6543
0.64063
0.60938
0.58984
0.56445
0.58008
0.57031
0.70508
0.75
0.59961
0.40039
0.3457
0.375
0.42578
0.46094
0.48047
0.48047
0.48438
0.48047
0.47461
0.47461
0.5
0.60547
0.69922
0.51563
0.44531
0.45508
0.4043
0.42969
0.45508
0.46094
0.48047
0.47461
0.4707
0.47461
0.48047
0.48047
0.49023
0.52539
0.57422
0.68555
0.55469
0.55078
0.50977
0.48047
0.46484
0.44922
0.46094
0.4707
0.45508
0.43945
0.44531
0.42969
0.43945
0.51563
0.46094
0.41016
0.50586
0.53516
0.72461
0.98047
0.82031
0.095703
-0.49805
-0.49805
0.035156
0.3457
0.44531
0.4707
0.48438
0.5
0.50977
0.51953
0.52539
0.5957
0.58984
0.53516
0.47461
0.49414
0.52539
0.53906
0.55078
0.57031
0.5957
0.60938
0.61914
0.63477
0.66016
0.66016
0.66992
0.68945
0.71484
0.75391
0.67578
0.53516
0.50586
0.48438
0.4707
0.44531
0.42578
0.41016
0.41016
0.40039
0.41016
0.41016
0.41992
0.4043
0.42578
0.5
0.57422
0.42969
0.33984
0.3457
0.375
0.39453
0.40039
0.40039
0.41016
0.41016
0.41016
0.42578
0.41992
0.41992
0.41602
0.41016
0.41016
0.4043
0.41602
0.4707
0.55469
0.45508
0.42578
0.40039
0.37109
0.41016
0.44531
0.47461
0.50977
0.52539
0.48438
0.4707
0.44531
0.43555
0.44922
0.46484
0.41992
0.4707
0.5
0.38086
0.35938
0.41992
0.4707
0.43555
0.5293
0.72461
0.93945
0.73047
0.0058594
-0.49805
-0.4082
0.15039
0.44531
0.47461
0.45508
0.49023
0.5293
0.54492
0.53906
0.55078
0.55469
0.56445
0.57422
0.58008
0.5957
0.60938
0.60938
0.67969
0.76563
0.68945
0.55078
0.59961
0.65039
0.67578
0.68945
0.71484
0.7207
0.71484
0.68945
0.66406
0.64453
0.61523
0.57422
0.55078
0.5293
0.50977
0.48047
0.46484
0.4707
0.46484
0.47461
0.48047
0.48047
0.4707
0.4707
0.47461
0.5
0.50586
0.47461
0.51953
0.49414
0.44922
0.45508
0.45508
0.45508
0.45508
0.45508
0.46094
0.46094
0.46094
0.46094
0.45508
0.45508
0.44922
0.45508
0.45508
0.45508
0.44922
0.44922
0.46484
0.49023
0.47461
0.46484
0.48438
0.5
0.54492
0.53516
0.5
0.48047
0.45508
0.44922
0.43945
0.42969
0.41992
0.41602
0.41016
0.41602
0.41992
0.42969
0.42578
0.46484
0.58984
0.7793
0.91016
0.5957
-0.13867
-0.49805
-0.26953
0.18555
0.39453
0.46484
0.49023
0.50977
0.52539
0.5293
0.53516
0.55078
0.55078
0.55078
0.56445
0.57031
0.57422
0.57422
0.58984
0.60547
0.61914
0.61914
0.63477
0.6543
0.67578
0.68945
0.70508
0.71484
0.70898
0.69922
0.68555
0.66406
0.63477
0.59961
0.55078
0.51563
0.5
0.49023
0.48047
0.48047
0.47461
0.48047
0.46484
0.4707
0.4707
0.46484
0.4707
0.46484
0.48047
0.48438
0.48047
0.49023
0.48438
0.48047
0.47461
0.48047
0.47461
0.47461
0.46484
0.46094
0.46484
0.46094
0.46484
0.46094
0.4707
0.47461
0.45508
0.45508
0.45508
0.45508
0.45508
0.4707
0.48438
0.5
0.50586
0.53906
0.55469
0.51953
0.50586
0.48047
0.46484
0.43945
0.44531
0.44531
0.43555
0.42578
0.41992
0.42969
0.42969
0.43555
0.44922
0.53516
0.64063
0.84375
0.91016
0.39063
-0.41992
-0.49805
-0.048828
0.30078
0.43945
0.49023
0.50586
0.52539
0.53516
0.5293
0.53906
0.55078
0.55078
0.55469
0.56445
0.57422
0.61523
0.58984
0.58398
0.59961
0.60547
0.625
0.63477
0.65039
0.66406
0.67969
0.69922
0.68945
0.68945
0.67969
0.66016
0.64063
0.60547
0.57031
0.53516
0.50977
0.48047
0.46094
0.45508
0.44922
0.45508
0.44922
0.43945
0.44922
0.44531
0.45508
0.45508
0.45508
0.45508
0.45508
0.45508
0.45508
0.44922
0.45508
0.46484
0.44922
0.43555
0.43555
0.43555
0.43945
0.43945
0.42969
0.43555
0.44922
0.43945
0.43945
0.42969
0.43555
0.43945
0.43555
0.42969
0.44531
0.4707
0.48047
0.49023
0.51563
0.54492
0.51953
0.49023
0.47461
0.45508
0.43945
0.43945
0.42969
0.42578
0.41016
0.41016
0.41602
0.41992
0.42578
0.41992
0.47461
0.58984
0.79492
0.92969
0.56055
-0.25391
-0.49805
-0.22852
0.21094
0.41016
0.47461
0.5
0.50977
0.52539
0.53516
0.54492
0.56055
0.55469
0.55078
0.55078
0.56445
0.57422
0.58008
0.58984
0.5957
0.60547
0.61914
0.63477
0.64453
0.66406
0.67969
0.68945
0.69531
0.68945
0.67969
0.66406
0.64453
0.61914
0.58984
0.55078
0.51953
0.5
0.47461
0.46094
0.45508
0.44922
0.44922
0.45508
0.44922
0.44531
0.45508
0.45508
0.45508
0.46094
0.46094
0.46094
0.46094
0.46094
0.46094
0.46094
0.45508
0.44922
0.45508
0.44531
0.44531
0.44922
0.43945
0.43555
0.44531
0.43945
0.43555
0.44531
0.44922
0.44531
0.44922
0.43555
0.44531
0.44531
0.45508
0.48047
0.5
0.50586
0.51563
0.54492
0.5293
0.50586
0.47461
0.45508
0.43945
0.42969
0.42969
0.42578
0.41602
0.41016
0.41602
0.42578
0.41992
0.43555
0.48047
0.58984
0.77539
0.91016
0.55469
-0.25977
-0.49805
-0.20508
0.22461
0.41992
0.48047
0.5
0.50977
0.52539
0.53516
0.53516
0.53906
0.55078
0.56055
0.56445
0.57031
0.57031
0.57422
0.58984
0.5957
0.5957
0.61523
0.64453
0.6543
0.66406
0.67969
0.68555
0.68945
0.69531
0.69922
0.66992
0.64063
0.61914
0.58008
0.55469
0.52539
0.50977
0.48047
0.47461
0.4707
0.45508
0.44922
0.45508
0.45508
0.46094
0.46094
0.45508
0.46484
0.46094
0.45508
0.46484
0.4707
0.46484
0.46484
0.47461
0.4707
0.45508
0.44531
0.45508
0.46094
0.45508
0.44531
0.43945
0.44531
0.44531
0.43945
0.45508
0.45508
0.44531
0.43945
0.44531
0.44531
0.44531
0.45508
0.4707
0.48047
0.49023
0.50586
0.53906
0.5293
0.50977
0.48438
0.46094
0.44922
0.44531
0.42578
0.41992
0.42969
0.41602
0.41016
0.41602
0.42578
0.42969
0.48047
0.59961
0.82031
0.96875
0.67578
-0.099609
-0.49805
-0.22852
0.17969
0.38477
0.45508
0.48047
0.49023
0.50586
0.50977
0.51563
0.52539
0.52539
0.52539
0.52539
0.53516
0.54492
0.56055
0.57031
0.57031
0.57422
0.5957
0.60938
0.62891
0.64453
0.64453
0.66406
0.66406
0.66406
0.66016
0.64453
0.61914
0.58984
0.56055
0.53516
0.5
0.48047
0.46484
0.45508
0.43945
0.43945
0.44531
0.44922
0.44531
0.44531
0.44922
0.45508
0.44531
0.44531
0.43945
0.44922
0.45508
0.45508
0.44922
0.43945
0.43945
0.44531
0.43945
0.43555
0.43555
0.43555
0.43555
0.42969
0.42969
0.42969
0.42969
0.42969
0.42969
0.42969
0.42969
0.43555
0.43945
0.45508
0.4707
0.48047
0.49023
0.52539
0.54492
0.51563
0.49023
0.46484
0.44531
0.43555
0.43945
0.42969
0.41992
0.41602
0.41602
0.41992
0.41992
0.42969
0.42969
0.50977
0.6543
0.89453
0.96484
0.38477
-0.49805
-0.49805
-0.074219
0.30078
0.44531
0.48438
0.50586
0.51563
0.52539
0.53516
0.54492
0.54492
0.55078
0.55078
0.56055
0.57422
0.57422
0.58398
0.5957
0.60547
0.61914
0.64063
0.6543
0.66016
0.66992
0.68945
0.70508
0.71484
0.71484
0.69531
0.67578
0.64453
0.61523
0.58008
0.54492
0.51563
0.49023
0.47461
0.46484
0.46094
0.45508
0.45508
0.45508
0.45508
0.45508
0.45508
0.45508
0.45508
0.45508
0.46094
0.46094
0.46484
0.45508
0.46094
0.45508
0.44922
0.45508
0.45508
0.45508
0.46094
0.44531
0.43945
0.44531
0.44531
0.44531
0.44531
0.43945
0.43945
0.44531
0.43945
0.43555
0.43945
0.45508
0.47461
0.49023
0.49023
0.51953
0.54492
0.52539
0.5
0.47461
0.44922
0.43555
0.42969
0.43555
0.42969
0.42578
0.41602
0.42578
0.42969
0.42969
0.42969
0.48047
0.60938
0.79883
0.9043
0.49023
-0.33008
-0.49805
-0.19922
0.23438
0.43555
0.48438
0.50586
0.51953
0.52539
0.53906
0.54492
0.54492
0.55078
0.55469
0.56055
0.56445
0.57031
0.58398
0.5957
0.59961
0.60938
0.625
0.64063
0.65039
0.67578
0.68945
0.69922
0.70508
0.69922
0.70508
0.68555
0.66016
0.62891
0.58984
0.55469
0.52539
0.50586
0.48047
0.46094
0.44922
0.45508
0.45508
0.45508
0.45508
0.45508
0.45508
0.45508
0.45508
0.46094
0.46094
0.46484
0.46484
0.46484
0.46094
0.46094
0.46094
0.46484
0.46094
0.45508
0.43945
0.43555
0.44531
0.44531
0.45508
0.44922
0.44531
0.43945
0.44922
0.44922
0.44531
0.44922
0.43945
0.43555
0.43945
0.44531
0.45508
0.48047
0.5
0.5
0.5293
0.55078
0.5293
0.50586
0.48047
0.45508
0.43555
0.43555
0.43945
0.42969
0.41602
0.41602
0.42969
0.42969
0.42969
0.43555
0.50586
0.62891
0.83398
0.9043
0.42969
-0.37891
-0.49805
-0.080078
0.27539
0.43945
0.48438
0.5
0.51563
0.52539
0.51953
0.53516
0.53906
0.53516
0.53906
0.55078
0.55469
0.56055
0.57031
0.58008
0.58398
0.60547
0.60938
0.61914
0.63477
0.65039
0.66406
0.68555
0.68945
0.66992
0.66406
0.65039
0.64063
0.60938
0.57031
0.53906
0.51953
0.49023
0.48047
0.4707
0.46094
0.45508
0.44922
0.45508
0.45508
0.4707
0.46484
0.46484
0.46484
0.47461
0.47461
0.4707
0.46484
0.46094
0.45508
0.46484
0.46484
0.46094
0.44922
0.44922
0.44531
0.45508
0.44922
0.44531
0.43555
0.42969
0.43945
0.44922
0.43945
0.43555
0.43555
0.44531
0.44922
0.43945
0.44531
0.43555
0.43945
0.45508
0.48047
0.49414
0.49023
0.52539
0.55469
0.53516
0.50586
0.48047
0.46484
0.45508
0.43945
0.42969
0.42969
0.41992
0.41016
0.41016
0.41992
0.42578
0.42969
0.50977
0.64453
0.875
0.94922
0.43555
-0.39844
-0.49805
-0.064453
0.28516
0.42969
0.4707
0.48438
0.5
0.50586
0.51953
0.51953
0.52539
0.51953
0.5293
0.53906
0.55078
0.56055
0.56445
0.57422
0.58398
0.5957
0.60547
0.625
0.64453
0.6543
0.66406
0.67969
0.67969
0.68555
0.67578
0.66016
0.625
0.5957
0.57031
0.53906
0.50977
0.48047
0.46484
0.45508
0.45508
0.44531
0.44922
0.45508
0.45508
0.45508
0.45508
0.45508
0.45508
0.45508
0.45508
0.45508
0.45508
0.45508
0.46484
0.45508
0.45508
0.44922
0.44922
0.44922
0.44531
0.43945
0.43945
0.43555
0.43555
0.43945
0.44922
0.43945
0.43555
0.42969
0.42969
0.43555
0.43945
0.43945
0.44531
0.44531
0.43945
0.45508
0.47461
0.49023
0.49414
0.52539
0.55078
0.52539
0.5
0.47461
0.45508
0.44531
0.43945
0.43945
0.42969
0.41992
0.41992
0.41992
0.42969
0.42969
0.43945
0.50977
0.64453
0.875
0.94922
0.39063
-0.48828
-0.49805
-0.080078
0.30078
0.44922
0.49023
0.50586
0.52539
0.5293
0.53516
0.53906
0.55078
0.55078
0.55469
0.56445
0.57031
0.57422
0.58398
0.5957
0.59961
0.61523
0.62891
0.64453
0.66016
0.67969
0.69531
0.70508
0.71484
0.70898
0.69922
0.67969
0.65039
0.61523
0.58398
0.54492
0.51953
0.49414
0.48047
0.46484
0.46094
0.45508
0.45508
0.44922
0.45508
0.45508
0.45508
0.45508
0.45508
0.45508
0.45508
0.45508
0.46094
0.46094
0.46094
0.46484
0.46094
0.46094
0.45508
0.45508
0.45508
0.45508
0.45508
0.45508
0.44922
0.44531
0.44531
0.44531
0.44922
0.44531
0.43945
0.44531
0.44531
0.44531
0.45508
0.44922
0.45508
0.45508
0.46484
0.48438
0.5
0.50586
0.55078
0.53906
0.51563
0.49023
0.46484
0.44531
0.43555
0.43945
0.43555
0.42969
0.42969
0.43555
0.42969
0.42969
0.43555
0.46094
0.56055
0.72461
0.9043
0.70508
-0.035156
-0.49805
-0.39453
0.14063
0.4043
0.49023
0.50586
0.52539
0.5293
0.53906
0.53516
0.55078
0.55469
0.55469
0.56055
0.56445
0.57422
0.58984
0.58398
0.5957
0.59961
0.60938
0.61914
0.64063
0.6543
0.68555
0.70508
0.71484
0.71484
0.69531
0.68945
0.66406
0.63477
0.59961
0.57031
0.54492
0.52539
0.5
0.48438
0.46484
0.45508
0.45508
0.45508
0.44922
0.46094
0.4707
0.46484
0.46094
0.46484
0.46484
0.48047
0.47461
0.4707
0.4707
0.46484
0.4707
0.46094
0.45508
0.46094
0.46094
0.46094
0.46094
0.45508
0.44922
0.43945
0.44922
0.44531
0.43945
0.44531
0.44922
0.44531
0.44922
0.46094
0.45508
0.44531
0.44922
0.45508
0.44531
0.45508
0.44922
0.45508
0.48047
0.5
0.5
0.52539
0.56445
0.55469
0.51563
0.48438
0.45508
0.45508
0.44531
0.43945
0.43555
0.42969
0.41992
0.41992
0.42969
0.42969
0.44922
0.5293
0.64063
0.83008
0.91992
0.50586
-0.29492
-0.49805
-0.074219
0.27539
0.42969
0.48047
0.49414
0.50586
0.51563
0.51953
0.52539
0.52539
0.5293
0.53906
0.55078
0.55078
0.54492
0.55078
0.57422
0.58008
0.58984
0.60547
0.61914
0.64063
0.65039
0.66406
0.66992
0.66406
0.66406
0.66992
0.6543
0.62891
0.59961
0.57422
0.55078
0.51953
0.48438
0.48047
0.46094
0.45508
0.44531
0.44531
0.44531
0.44922
0.44531
0.45508
0.45508
0.45508
0.46094
0.45508
0.48047
0.5
0.46484
0.43555
0.42969
0.43555
0.44922
0.44531
0.44531
0.44531
0.46094
0.44922
0.43945
0.43945
0.43945
0.42969
0.42969
0.43555
0.42969
0.42969
0.44531
0.45508
0.44531
0.43945
0.42969
0.44531
0.44922
0.44922
0.44531
0.45508
0.46094
0.48047
0.49414
0.50586
0.54492
0.55469
0.51953
0.50586
0.49023
0.4707
0.45508
0.43555
0.42969
0.43555
0.42578
0.41992
0.42578
0.42969
0.43945
0.46484
0.58398
0.77539
0.97461
0.75
-0.0039063
-0.49805
-0.34961
0.15625
0.40039
0.48047
0.49414
0.50586
0.51563
0.51953
0.52539
0.53516
0.54492
0.55078
0.55078
0.56055
0.57031
0.56445
0.58008
0.5957
0.59961
0.61523
0.625
0.6543
0.66406
0.67969
0.69531
0.70898
0.69922
0.70508
0.68945
0.66992
0.63477
0.58984
0.56055
0.5293
0.49414
0.47461
0.46484
0.46094
0.45508
0.45508
0.45508
0.46094
0.45508
0.44922
0.45508
0.44922
0.45508
0.46484
0.4707
0.46484
0.45508
0.45508
0.45508
0.45508
0.45508
0.45508
0.43555
0.42969
0.44531
0.44531
0.44922
0.46484
0.44922
0.41992
0.41602
0.42578
0.42969
0.42578
0.42969
0.44531
0.44922
0.44531
0.43555
0.43945
0.44531
0.45508
0.45508
0.47461
0.48047
0.5
0.51563
0.53516
0.55078
0.53516
0.50977
0.47461
0.45508
0.46094
0.4707
0.43555
0.42969
0.42578
0.42578
0.42969
0.43555
0.42969
0.44922
0.55078
0.69531
0.91016
0.94531
0.23047
-0.49805
-0.47461
0.050781
0.33984
0.45508
0.49023
0.50977
0.52539
0.54492
0.54492
0.55078
0.54492
0.53906
0.55469
0.55469
0.56055
0.58008
0.58984
0.5957
0.60547
0.63477
0.625
0.63477
0.64453
0.66406
0.68945
0.68555
0.69922
0.71484
0.68945
0.66992
0.64063
0.61523
0.58984
0.55078
0.50977
0.49414
0.49023
0.48047
0.46094
0.45508
0.45508
0.45508
0.44922
0.44922
0.45508
0.46094
0.46094
0.45508
0.45508
0.45508
0.46094
0.46094
0.46094
0.46094
0.4707
0.4707
0.45508
0.45508
0.43945
0.43945
0.44531
0.42969
0.43945
0.45508
0.45508
0.44531
0.44922
0.45508
0.44922
0.44922
0.45508
0.44922
0.44531
0.44922
0.44531
0.43945
0.43945
0.43945
0.45508
0.48047
0.49414
0.50586
0.54492
0.55078
0.51953
0.5
0.48047
0.46094
0.44531
0.42969
0.42578
0.41602
0.41602
0.41602
0.41602
0.42578
0.42578
0.46484
0.5957
0.81445
0.95898
0.63477
-0.18945
-0.49805
-0.24023
0.2207
0.41992
0.4707
0.49023
0.50586
0.51953
0.52539
0.52539
0.53516
0.54492
0.55078
0.55469
0.56055
0.57422
0.58984
0.58984
0.60547
0.61523
0.62891
0.64453
0.66406
0.67578
0.68945
0.69922
0.70508
0.70898
0.69922
0.67969
0.65039
0.61914
0.58984
0.56055
0.52539
0.5
0.48047
0.46484
0.46094
0.46094
0.46094
0.45508
0.45508
0.45508
0.46094
0.45508
0.45508
0.45508
0.45508
0.46094
0.46484
0.46094
0.46094
0.46094
0.46094
0.43945
0.44531
0.45508
0.45508
0.44922
0.44922
0.45508
0.45508
0.44531
0.43945
0.44922
0.43945
0.42969
0.43555
0.44531
0.43945
0.43945
0.45508
0.46094
0.45508
0.45508
0.46484
0.48438
0.5
0.50586
0.52539
0.55078
0.5293
0.50586
0.48047
0.46094
0.45508
0.45508
0.44922
0.44531
0.43555
0.42969
0.42578
0.42969
0.43555
0.44531
0.50586
0.64063
0.84961
0.92969
0.40039
-0.44922
-0.49805
-0.10352
0.30078
0.46484
0.50586
0.52539
0.5293
0.53906
0.53516
0.54492
0.55078
0.55469
0.56055
0.57422
0.58008
0.58984
0.5957
0.60547
0.61914
0.625
0.63477
0.65039
0.66992
0.68555
0.69922
0.70508
0.71484
0.71484
0.70898
0.68945
0.66406
0.62891
0.58984
0.55469
0.5293
0.50586
0.48047
0.4707
0.46484
0.46094
0.45508
0.45508
0.45508
0.44922
0.44922
0.45508
0.46094
0.44922
0.45508
0.45508
0.46484
0.4707
0.46094
0.45508
0.45508
0.44922
0.44531
0.43945
0.44531
0.44922
0.45508
0.44922
0.44922
0.43945
0.44531
0.44531
0.44531
0.43555
0.43945
0.44531
0.43945
0.44922
0.44922
0.44531
0.43945
0.44922
0.45508
0.45508
0.45508
0.45508
0.47461
0.5
0.50586
0.51563
0.55078
0.55469
0.53516
0.5
0.46484
0.44531
0.43945
0.44531
0.43945
0.42969
0.41992
0.41992
0.42969
0.42969
0.42969
0.46094
0.56445
0.73047
0.88477
0.61523
-0.12891
-0.49805
-0.30859
0.17969
0.41602
0.48438
0.50586
0.52539
0.53516
0.53906
0.55078
0.55078
0.56055
0.56445
0.57031
0.56445
0.57422
0.58398
0.58984
0.59961
0.61523
0.61914
0.63477
0.65039
0.66992
0.68945
0.68945
0.70508
0.71484
0.71484
0.69531
0.67969
0.65039
0.61523
0.58008
0.55078
0.51953
0.49414
0.48047
0.4707
0.46484
0.45508
0.45508
0.45508
0.46094
0.46094
0.46094
0.45508
0.45508
0.45508
0.45508
0.46094
0.46484
0.4707
0.47461
0.46094
0.46094
0.46094
0.46094
0.45508
0.45508
0.45508
0.45508
0.44922
0.43945
0.44531
0.44531
0.44922
0.45508
0.44922
0.44922
0.44531
0.44922
0.44531
0.45508
0.45508
0.44922
0.44531
0.45508
0.48047
0.49023
0.49414
0.51953
0.57031
0.55469
0.50977
0.47461
0.45508
0.44922
0.44531
0.45508
0.42969
0.41992
0.41016
0.41992
0.42969
0.42969
0.44922
0.5
0.5957
0.7793
0.88867
0.55469
-0.22852
-0.49805
-0.14453
0.23438
0.41016
0.47461
0.50586
0.51563
0.51953
0.51563
0.5293
0.53906
0.54492
0.53516
0.54492
0.55469
0.56445
0.57031
0.57422
0.58008
0.5957
0.5957
0.61523
0.64063
0.65039
0.66406
0.66406
0.67969
0.68945
0.67969
0.66016
0.62891
0.60547
0.58398
0.55078
0.51563
0.49414
0.47461
0.46484
0.45508
0.45508
0.44922
0.44531
0.45508
0.44531
0.46094
0.45508
0.44922
0.44531
0.45508
0.45508
0.45508
0.45508
0.45508
0.44531
0.44922
0.44531
0.44531
0.43945
0.44531
0.44922
0.43945
0.43945
0.43945
0.43945
0.43945
0.43945
0.43555
0.43555
0.42969
0.43555
0.43945
0.43555
0.42969
0.43945
0.43555
0.44922
0.46484
0.48438
0.49023
0.50977
0.55078
0.5293
0.50586
0.48438
0.46094
0.45508
0.44531
0.42969
0.42578
0.41992
0.41992
0.43555
0.44531
0.44531
0.44531
0.49414
0.61523
0.82422
0.91016
0.41602
-0.43359
-0.49805
-0.12891
0.25586
0.42969
0.48047
0.51563
0.54492
0.58008
0.5957
0.57422
0.53906
0.50586
0.47461
0.45508
0.48438
0.5293
0.53906
0.51563
0.51563
0.55078
0.58008
0.60938
0.62891
0.64453
0.66406
0.68945
0.69531
0.70508
0.69922
0.68945
0.66016
0.625
0.58398
0.55078
0.51953
0.5
0.48047
0.4707
0.45508
0.45508
0.45508
0.46094
0.46094
0.45508
0.45508
0.45508
0.45508
0.45508
0.46094
0.46484
0.44922
0.44922
0.45508
0.45508
0.46094
0.4707
0.47461
0.46484
0.45508
0.45508
0.45508
0.43945
0.43945
0.43945
0.43555
0.44531
0.45508
0.46094
0.46484
0.46484
0.46484
0.45508
0.45508
0.45508
0.46094
0.47461
0.49414
0.50586
0.52539
0.55469
0.54492
0.50977
0.49023
0.46484
0.44531
0.43555
0.42969
0.42969
0.42578
0.41992
0.41602
0.41602
0.41016
0.41016
0.44531
0.56055
0.75391
0.89453
0.5293
-0.30469
-0.49805
-0.24023
0.22461
0.42578
0.49023
0.51953
0.5293
0.5293
0.5293
0.55078
0.55078
0.55469
0.57031
0.57422
0.58398
0.58984
0.5957
0.5957
0.60547
0.61914
0.63477
0.65039
0.66406
0.68555
0.69922
0.70898
0.71484
0.71484
0.70898
0.67578
0.66016
0.62891
0.58398
0.54492
0.50586
0.47461
0.45508
0.44531
0.44531
0.45508
0.45508
0.44531
0.43555
0.44922
0.45508
0.44531
0.44922
0.45508
0.45508
0.46094
0.45508
0.48047
0.4707
0.45508
0.46094
0.46094
0.46484
0.44922
0.46484
0.45508
0.44531
0.43555
0.44922
0.45508
0.45508
0.44922
0.45508
0.45508
0.45508
0.44531
0.43945
0.45508
0.45508
0.45508
0.45508
0.4707
0.48438
0.5
0.50586
0.52539
0.55078
0.53516
0.51953
0.48047
0.46484
0.45508
0.44922
0.43945
0.43555
0.41992
0.41602
0.42969
0.43555
0.42969
0.43945
0.51953
0.64063
0.86523
0.92969
0.43945
-0.37891
-0.49805
-0.039063
0.30469
0.44922
0.49023
0.5
0.51953
0.53516
0.54492
0.53516
0.53906
0.53516
0.54492
0.55078
0.55469
0.55469
0.56445
0.57422
0.58398
0.5957
0.59961
0.61523
0.64063
0.6543
0.66016
0.66992
0.68555
0.68555
0.66406
0.64453
0.625
0.5957
0.56445
0.53906
0.50977
0.48438
0.4707
0.46484
0.46094
0.45508
0.46094
0.45508
0.44922
0.45508
0.45508
0.46094
0.46484
0.46094
0.46094
0.46484
0.46094
0.45508
0.45508
0.43945
0.44531
0.43945
0.45508
0.44531
0.43945
0.44531
0.44531
0.43555
0.42969
0.43945
0.43555
0.43555
0.43555
0.43555
0.43945
0.44531
0.43945
0.43555
0.44531
0.44922
0.45508
0.48047
0.49414
0.49414
0.51953
0.54492
0.51563
0.5
0.47461
0.45508
0.44531
0.44531
0.42969
0.41602
0.41016
0.41016
0.41016
0.41602
0.42578
0.42969
0.51563
0.66016
0.91406
0.96484
0.32031
-0.49805
-0.49805
-0.044922
0.32422
0.45508
0.49023
0.50586
0.50977
0.51953
0.53516
0.53906
0.54492
0.55078
0.56055
0.56445
0.56055
0.57422
0.58398
0.5957
0.60547
0.625
0.63477
0.6543
0.67578
0.69531
0.70508
0.70508
0.70508
0.70898
0.70508
0.67969
0.65039
0.61523
0.57422
0.54492
0.51563
0.48438
0.4707
0.46094
0.44922
0.44531
0.43555
0.44531
0.43555
0.44531
0.44922
0.44531
0.44922
0.45508
0.45508
0.44531
0.45508
0.45508
0.43945
0.43555
0.44922
0.43945
0.44531
0.43555
0.43945
0.43945
0.43555
0.42969
0.42969
0.42969
0.43555
0.42969
0.43945
0.43555
0.43555
0.42969
0.43555
0.43945
0.44531
0.44531
0.43945
0.44531
0.46484
0.49023
0.5
0.51563
0.53906
0.52539
0.50586
0.49414
0.46094
0.44922
0.43945
0.42969
0.42969
0.42969
0.42578
0.41992
0.41602
0.42578
0.43555
0.48438
0.61523
0.84375
0.95508
0.49414
-0.4043
-0.49805
-0.18359
0.25977
0.45508
0.50586
0.51563
0.52539
0.5293
0.5293
0.55078
0.55078
0.57031
0.57422
0.57031
0.57422
0.5957
0.60938
0.5957
0.61523
0.62891
0.64453
0.66406
0.67578
0.68945
0.70508
0.71484
0.71484
0.7207
0.71484
0.69531
0.6543
0.60938
0.58984
0.57031
0.55078
0.51953
0.5
0.48438
0.48047
0.48047
0.47461
0.4707
0.4707
0.46484
0.4707
0.46484
0.4707
0.47461
0.48047
0.48047
0.4707
0.47461
0.47461
0.46484
0.45508
0.4707
0.48047
0.4707
0.46484
0.46484
0.46094
0.45508
0.45508
0.45508
0.44922
0.44531
0.45508
0.45508
0.44531
0.44922
0.45508
0.44922
0.44531
0.44922
0.45508
0.45508
0.45508
0.44922
0.45508
0.47461
0.49414
0.50586
0.51953
0.56055
0.57422
0.52539
0.5
0.4707
0.45508
0.45508
0.44922
0.43945
0.43555
0.42969
0.42578
0.43555
0.43555
0.42969
0.46094
0.58398
0.73438
0.91016
0.66992
-0.035156
-0.49805
-0.33008
0.16602
0.4043
0.48047
0.50586
0.52539
0.5293
0.53516
0.53906
0.55078
0.55469
0.55078
0.57422
0.57422
0.57422
0.58984
0.5957
0.60547
0.61914
0.61914
0.625
0.64063
0.6543
0.67969
0.68945
0.70508
0.69922
0.70898
0.69922
0.69531
0.62891
0.58398
0.56445
0.52539
0.50586
0.49023
0.48438
0.47461
0.46094
0.45508
0.46094
0.4707
0.46484
0.4707
0.48047
0.46484
0.4707
0.4707
0.47461
0.47461
0.46484
0.47461
0.46484
0.45508
0.45508
0.46484
0.45508
0.4707
0.44531
0.45508
0.46094
0.45508
0.45508
0.45508
0.4707
0.45508
0.43945
0.44531
0.44922
0.45508
0.46484
0.48047
0.44531
0.42578
0.43945
0.44922
0.46484
0.46484
0.49414
0.49414
0.5293
0.58398
0.55469
0.50586
0.46094
0.44531
0.44922
0.44531
0.45508
0.42578
0.41992
0.42578
0.45508
0.44922
0.42969
0.42969
0.4707
0.61523
0.73047
0.76953
0.35547
-0.36328
-0.49805
-0.14844
0.25
0.41992
0.48047
0.51953
0.52539
0.49414
0.5293
0.51563
0.51953
0.51563
0.54492
0.55469
0.5293
0.55469
0.57031
0.54492
0.55078
0.54492
0.57422
0.59961
0.61914
0.63477
0.65039
0.6543
0.64453
0.66406
0.64453
0.64453
0.62891
0.58008
0.53906
0.50977
0.48047
0.43945
0.45508
0.41602
0.39453
0.39063
0.41992
0.41602
0.41016
0.42578
0.43945
0.40039
0.38477
0.39453
0.41016
0.42578
0.45508
0.41602
0.42969
0.40039
0.38477
0.39063
0.4043
0.41016
0.41016
0.41016
0.41016
0.40039
0.4043
0.41016
0.41602
0.42578
0.4043
0.39453
0.41992
0.41602
0.42969
0.41602
0.41992
0.42578
0.44531
0.47461
0.48438
0.50586
0.53906
0.55078
0.50977
0.49023
0.46094
0.44531
0.44922
0.45508
0.44922
0.44531
0.44531
0.45508
0.48047
0.46484
0.43945
0.42969
0.52539
0.625
0.75977
0.65039
0.080078
-0.49805
-0.39844
0.11523
0.4043
0.53516
0.58008
0.65039
0.61523
0.52539
0.53516
0.55469
0.57422
0.5957
0.59961
0.61523
0.61914
0.64453
0.66016
0.66016
0.68945
0.72461
0.68945
0.68945
0.68945
0.68945
0.69922
0.72461
0.73047
0.73047
0.73438
0.7207
0.66992
0.64063
0.60938
0.58984
0.57422
0.62891
0.6543
0.58984
0.49023
0.42969
0.44922
0.47461
0.48047
0.48438
0.49414
0.49414
0.5
0.5
0.5
0.49414
0.5
0.49414
0.49414
0.5
0.5
0.49414
0.49023
0.49023
0.49023
0.48047
0.48047
0.48047
0.48047
0.47461
0.47461
0.4707
0.4707
0.4707
0.46484
0.4707
0.46484
0.46094
0.46484
0.48438
0.50586
0.50977
0.50586
0.56055
0.55078
0.52539
0.49414
0.45508
0.44531
0.44922
0.44922
0.43555
0.42969
0.42969
0.42578
0.42969
0.41992
0.42578
0.45508
0.55469
0.68945
0.83984
0.64453
-0.048828
-0.49805
-0.37891
0.13086
0.39063
0.48438
0.50586
0.51953
0.5293
0.55078
0.55078
0.54492
0.53906
0.55078
0.56445
0.57031
0.57422
0.57422
0.58008
0.5957
0.61523
0.625
0.64063
0.6543
0.66406
0.68555
0.68945
0.70508
0.70898
0.70508
0.69531
0.67578
0.65039
0.60938
0.58008
0.55078
0.52539
0.51563
0.5
0.46484
0.45508
0.4707
0.45508
0.45508
0.46094
0.4707
0.46484
0.46484
0.47461
0.4707
0.4707
0.48047
0.48047
0.4707
0.4707
0.46484
0.4707
0.48047
0.47461
0.46484
0.46484
0.4707
0.46484
0.46484
0.46484
0.46484
0.46094
0.46484
0.45508
0.45508
0.46094
0.4707
0.48438
0.50586
0.50977
0.51953
0.56445
0.55078
0.51953
0.5
0.4707
0.45508
0.45508
0.45508
0.44922
0.43555
0.42969
0.42969
0.42969
0.43555
0.44531
0.46484
0.56055
0.66992
0.84375
0.85938
0.12109
-0.49805
-0.42969
0.076172
0.37109
0.47461
0.50586
0.52539
0.53516
0.53516
0.54492
0.55078
0.55078
0.56055
0.56445
0.56445
0.57031
0.57422
0.58398
0.5957
0.59961
0.60938
0.61914
0.64063
0.6543
0.66406
0.67969
0.68945
0.69531
0.68945
0.67969
0.66016
0.62891
0.59961
0.57031
0.54492
0.51563
0.49023
0.48047
0.47461
0.4707
0.46094
0.46094
0.46094
0.46094
0.46094
0.4707
0.4707
0.47461
0.4707
0.46484
0.4707
0.47461
0.46484
0.46094
0.46094
0.46094
0.45508
0.44922
0.44922
0.44531
0.44922
0.44922
0.44922
0.44922
0.44531
0.44922
0.45508
0.46484
0.48047
0.5
0.5
0.5293
0.55078
0.51953
0.49023
0.46094
0.44531
0.43555
0.43555
0.42969
0.42578
0.41992
0.41602
0.41602
0.41992
0.42578
0.42578
0.49023
0.5957
0.77539
0.83984
0.33008
-0.48438
-0.49805
-0.11914
0.28516
0.44922
0.49023
0.50586
0.52539
0.5293
0.54492
0.55078
0.54492
0.55469
0.56445
0.57031
0.57422
0.58008
0.58984
0.5957
0.5957
0.61523
0.61914
0.63477
0.6543
0.66992
0.68945
0.70508
0.70898
0.71484
0.70508
0.68555
0.6543
0.61523
0.58008
0.55078
0.51953
0.5
0.48047
0.4707
0.46094
0.45508
0.45508
0.44922
0.44922
0.45508
0.45508
0.45508
0.45508
0.46094
0.46484
0.46094
0.46094
0.46094
0.46094
0.46094
0.46094
0.45508
0.45508
0.44922
0.44531
0.44922
0.44922
0.44922
0.44531
0.44531
0.44531
0.46094
0.47461
0.48438
0.49414
0.5293
0.54492
0.51563
0.48438
0.45508
0.43555
0.42969
0.42578
0.42969
0.41602
0.4043
0.4043
0.41016
0.41602
0.41992
0.42578
0.49023
0.59961
0.78516
0.84375
0.27539
-0.49805
-0.49805
-0.083984
0.29102
0.44531
0.48438
0.50586
0.50586
0.50977
0.52539
0.53516
0.53906
0.55078
0.54492
0.55078
0.55078
0.55469
0.56445
0.56055
0.57422
0.5957
0.60938
0.61914
0.64063
0.6543
0.66406
0.66992
0.67969
0.67969
0.66992
0.65039
0.625
0.5957
0.57031
0.54492
0.5
0.4707
0.45508
0.44922
0.44531
0.43555
0.44531
0.44922
0.43945
0.44531
0.46094
0.45508
0.45508
0.44922
0.46094
0.45508
0.46094
0.46484
0.4707
0.45508
0.44922
0.45508
0.45508
0.44531
0.42969
0.43945
0.44531
0.44531
0.43945
0.44531
0.45508
0.47461
0.49023
0.49414
0.54492
0.55078
0.5
0.47461
0.44922
0.43945
0.44531
0.42969
0.42578
0.4043
0.41016
0.41992
0.42578
0.42578
0.42969
0.46094
0.56055
0.70898
0.86914
0.73438
0.064453
-0.49805
-0.36914
0.11133
0.36523
0.45508
0.49023
0.50586
0.52539
0.51953
0.52539
0.5293
0.5293
0.53906
0.54492
0.55078
0.54492
0.56055
0.56445
0.57422
0.58984
0.59961
0.61914
0.63477
0.64453
0.65039
0.66016
0.66992
0.67578
0.66406
0.65039
0.64063
0.61523
0.58398
0.54492
0.51563
0.49414
0.48047
0.48047
0.47461
0.45508
0.45508
0.46094
0.46094
0.46484
0.46484
0.46484
0.4707
0.46094
0.46484
0.4707
0.46484
0.46094
0.45508
0.45508
0.45508
0.45508
0.44922
0.44922
0.44531
0.44531
0.43945
0.43945
0.43945
0.43555
0.43945
0.43555
0.42969
0.43945
0.45508
0.47461
0.48047
0.5
0.53516
0.51953
0.49414
0.4707
0.44922
0.42969
0.42969
0.42578
0.41992
0.41016
0.41016
0.41016
0.41602
0.41992
0.42578
0.46484
0.58398
0.78906
0.93555
0.53516
-0.31445
-0.49805
-0.20508
0.23047
0.41992
0.47461
0.49023
0.50586
0.50977
0.51953
0.52539
0.53516
0.53906
0.53516
0.54492
0.55469
0.55469
0.56445
0.57422
0.58398
0.5957
0.60547
0.61523
0.63477
0.64453
0.66406
0.66992
0.67969
0.68555
0.66992
0.6543
0.63477
0.5957
0.57031
0.53906
0.50977
0.49023
0.46484
0.46094
0.46094
0.46484
0.45508
0.46094
0.45508
0.45508
0.45508
0.45508
0.45508
0.45508
0.46094
0.46094
0.46094
0.4707
0.46094
0.46094
0.46094
0.46094
0.46094
0.45508
0.44922
0.44922
0.45508
0.44922
0.44922
0.45508
0.44922
0.44922
0.44922
0.44922
0.44531
0.44922
0.45508
0.46484
0.48047
0.50586
0.50586
0.52539
0.56055
0.54492
0.51563
0.48438
0.45508
0.43945
0.44531
0.44922
0.43945
0.42969
0.42969
0.42969
0.42578
0.43555
0.43555
0.4707
0.58398
0.75977
0.89453
0.54492
-0.28516
-0.49805
-0.24023
0.23047
0.43555
0.49414
0.50977
0.51953
0.52539
0.53516
0.54492
0.55078
0.55469
0.55078
0.56445
0.57031
0.57422
0.58398
0.58984
0.5957
0.60938
0.61914
0.63477
0.65039
0.66406
0.67578
0.68945
0.69922
0.70508
0.69922
0.68945
0.66016
0.61914
0.58984
0.55469
0.5293
0.50977
0.49023
0.48047
0.48047
0.4707
0.46094
0.45508
0.46094
0.46484
0.4707
0.4707
0.4707
0.4707
0.47461
0.4707
0.47461
0.4707
0.46484
0.46094
0.46094
0.46094
0.46484
0.46094
0.45508
0.45508
0.45508
0.45508
0.44922
0.45508
0.45508
0.45508
0.45508
0.45508
0.45508
0.44922
0.44531
0.45508
0.45508
0.45508
0.45508
0.46094
0.46094
0.46094
0.46094
0.45508
0.45508
0.46094
0.46094
0.45508
0.45508
0.46094
0.46484
0.46484
0.46094
0.45508
0.46484
0.47461
0.4707
0.4707
0.49414
0.51563
0.52539
0.53516
0.57422
0.56445
0.52539
0.50977
0.47461
0.46094
0.4707
0.47461
0.44922
0.43555
0.43555
0.44922
0.44922
0.44922
0.44531
0.55078
0.67578
0.85938
0.91406
0.32031
-0.45313
-0.49805
0.035156
0.33984
0.46094
0.49023
0.5
0.52539
0.52539
0.52539
0.5293
0.53906
0.53906
0.53516
0.55078
0.55469
0.56055
0.57422
0.58398
0.58984
0.5957
0.61523
0.62891
0.64063
0.66016
0.66992
0.68555
0.67969
0.66992
0.67578
0.66406
0.64063
0.61523
0.57031
0.55078
0.51953
0.50586
0.48047
0.48047
0.47461
0.46484
0.46094
0.46094
0.46484
0.45508
0.46484
0.46094
0.4707
0.46094
0.46484
0.4707
0.4707
0.4707
0.47461
0.4707
0.46484
0.45508
0.45508
0.45508
0.45508
0.44922
0.45508
0.43945
0.43945
0.43945
0.44531
0.44922
0.44531
0.43555
0.43555
0.44531
0.44922
0.45508
0.44922
0.44531
0.43945
0.43945
0.44531
0.44531
0.43945
0.44531
0.44531
0.44531
0.44531
0.44531
0.44922
0.44531
0.44531
0.44922
0.44531
0.44922
0.44922
0.45508
0.44922
0.45508
0.4707
0.49023
0.50586
0.50977
0.55078
0.56055
0.53516
0.50977
0.48438
0.46094
0.45508
0.45508
0.44922
0.43945
0.43555
0.43555
0.43945
0.43945
0.44922
0.47461
0.58984
0.75977
0.96484
0.75391
0.025391
-0.49805
-0.31836
0.16016
0.4043
0.47461
0.5
0.51563
0.52539
0.53516
0.54492
0.55078
0.54492
0.55469
0.55469
0.57031
0.57031
0.57422
0.58398
0.5957
0.60547
0.61914
0.62891
0.64453
0.66406
0.67578
0.68555
0.69531
0.70508
0.69922
0.68945
0.66406
0.64063
0.60547
0.57422
0.54492
0.51563
0.49023
0.48047
0.4707
0.4707
0.46484
0.46484
0.46484
0.46484
0.46484
0.46484
0.46484
0.4707
0.48047
0.47461
0.48047
0.47461
0.48047
0.47461
0.47461
0.47461
0.4707
0.46484
0.46094
0.46094
0.45508
0.45508
0.44922
0.45508
0.45508
0.44922
0.44922
0.44922
0.45508
0.44531
0.44922
0.44922
0.44922
0.44922
0.44922
0.44922
0.44531
0.44531
0.44531
0.45508
0.44922
0.45508
0.44922
0.44922
0.44922
0.44922
0.44922
0.45508
0.44922
0.45508
0.45508
0.45508
0.45508
0.46094
0.48047
0.5
0.51563
0.52539
0.56055
0.57031
0.53906
0.50586
0.47461
0.44531
0.44531
0.44922
0.44922
0.44531
0.43555
0.43555
0.43945
0.43945
0.44922
0.4707
0.58008
0.73047
0.9043
0.68945
-0.029297
-0.49805
-0.33398
0.16602
0.41016
0.48438
0.50977
0.52539
0.53516
0.54492
0.55078
0.55078
0.56055
0.56055
0.56445
0.57422
0.57422
0.58008
0.58984
0.5957
0.60547
0.61914
0.64063
0.65039
0.66406
0.67578
0.68945
0.69922
0.71484
0.70898
0.69531
0.67578
0.64453
0.61523
0.58008
0.55078
0.51953
0.49023
0.48047
0.4707
0.46484
0.46484
0.45508
0.45508
0.45508
0.44922
0.45508
0.45508
0.45508
0.46094
0.46094
0.46094
0.45508
0.46094
0.46484
0.45508
0.45508
0.45508
0.45508
0.45508
0.45508
0.45508
0.44531
0.44531
0.43945
0.43555
0.43945
0.43945
0.43555
0.43555
0.44531
0.43945
0.43555
0.43555
0.43555
0.43945
0.42969
0.43945
0.43555
0.43555
0.44531
0.44531
0.44922
0.44531
0.44531
0.43945
0.43555
0.43555
0.44922
0.45508
0.45508
0.45508
0.46484
0.46094
0.4707
0.49023
0.50586
0.51953
0.55078
0.55469
0.5293
0.5
0.47461
0.43945
0.43945
0.44922
0.44922
0.43945
0.42969
0.42969
0.42969
0.43555
0.43945
0.48047
0.58398
0.73047
0.88477
0.66992
-0.048828
-0.49805
-0.29883
0.16992
0.4043
0.48047
0.50586
0.50586
0.51953
0.52539
0.52539
0.5293
0.5293
0.54492
0.55078
0.55078
0.55469
0.56445
0.57422
0.57422
0.58398
0.60547
0.61914
0.62891
0.65039
0.66406
0.67969
0.68945
0.69531
0.68945
0.67969
0.6543
0.625
0.59961
0.57031
0.5293
0.50586
0.48047
0.4707
0.4707
0.46094
0.44922
0.45508
0.45508
0.44922
0.44922
0.45508
0.46484
0.46094
0.46094
0.46484
0.47461
0.4707
0.46094
0.45508
0.46094
0.46094
0.45508
0.45508
0.45508
0.44922
0.44531
0.43945
0.44531
0.44922
0.44531
0.44922
0.44531
0.44531
0.44531
0.44922
0.44531
0.44531
0.44922
0.43945
0.43945
0.44531
0.44922
0.44922
0.44531
0.43945
0.44531
0.43945
0.45508
0.45508
0.45508
0.45508
0.45508
0.45508
0.44922
0.44922
0.46094
0.48047
0.49414
0.49023
0.51953
0.54492
0.5293
0.50586
0.48438
0.45508
0.43555
0.43555
0.43945
0.42969
0.41602
0.41602
0.42578
0.42969
0.43555
0.44531
0.53516
0.67578
0.87891
0.93555
0.30469
-0.49414
-0.49805
0.019531
0.32031
0.44531
0.47461
0.49023
0.5
0.50586
0.51563
0.52539
0.5293
0.5293
0.53516
0.54492
0.55078
0.55469
0.56055
0.57422
0.58008
0.5957
0.60938
0.61914
0.63477
0.65039
0.66406
0.68555
0.68945
0.68945
0.67969
0.66016
0.62891
0.5957
0.56055
0.52539
0.5
0.47461
0.46484
0.44922
0.44531
0.43945
0.43555
0.43555
0.43945
0.43945
0.44531
0.44922
0.44531
0.44531
0.44922
0.44922
0.45508
0.45508
0.44531
0.44531
0.44531
0.44531
0.44531
0.43945
0.43555
0.43945
0.43555
0.42969
0.42969
0.43555
0.42969
0.42969
0.42969
0.43555
0.43945
0.43555
0.42969
0.43555
0.43945
0.43555
0.43945
0.44531
0.44531
0.44531
0.44531
0.44531
0.44531
0.44531
0.45508
0.44922
0.43945
0.43945
0.44531
0.44922
0.4707
0.49023
0.50586
0.50977
0.55078
0.55469
0.51953
0.49023
0.46094
0.43555
0.43555
0.43945
0.43555
0.42969
0.42578
0.42578
0.42578
0.42969
0.42969
0.46484
0.57422
0.75391
0.92969
0.66992
-0.12891
-0.49805
-0.30469
0.18555
0.4043
0.47461
0.5
0.51563
0.52539
0.5293
0.5293
0.53906
0.55078
0.55078
0.55469
0.57031
0.57422
0.57422
0.58398
0.5957
0.60938
0.61914
0.64063
0.6543
0.67578
0.68945
0.69531
0.70898
0.71484
0.70898
0.69531
0.66992
0.64453
0.60938
0.57031
0.53906
0.51563
0.49414
0.48047
0.4707
0.46484
0.45508
0.44531
0.44531
0.44922
0.45508
0.45508
0.45508
0.45508
0.45508
0.45508
0.45508
0.44922
0.45508
0.45508
0.45508
0.45508
0.45508
0.44531
0.44531
0.44531
0.44922
0.43945
0.44531
0.43555
0.43555
0.44531
0.43945
0.43945
0.43555
0.43945
0.43555
0.43945
0.43555
0.43555
0.43945
0.43945
0.43945
0.43945
0.44922
0.45508
0.44531
0.43945
0.44922
0.45508
0.44531
0.44922
0.44922
0.45508
0.47461
0.5
0.50977
0.51953
0.55078
0.56055
0.52539
0.5
0.47461
0.43945
0.43945
0.43945
0.44531
0.43945
0.42578
0.41992
0.42969
0.42969
0.43555
0.46094
0.57031
0.70898
0.88867
0.71484
0.0097656
-0.49805
-0.38867
0.125
0.39063
0.47461
0.50586
0.51953
0.52539
0.53516
0.53906
0.54492
0.54492
0.55078
0.55469
0.56445
0.57031
0.57422
0.58008
0.58984
0.59961
0.61523
0.63477
0.6543
0.66406
0.68945
0.69531
0.70508
0.71484
0.71484
0.70508
0.68555
0.65039
0.61914
0.58984
0.55469
0.52539
0.50586
0.48438
0.4707
0.46094
0.46484
0.46094
0.46094
0.46094
0.45508
0.46094
0.46484
0.46484
0.45508
0.45508
0.45508
0.46094
0.46094
0.4707
0.46094
0.46094
0.45508
0.44922
0.45508
0.44922
0.45508
0.45508
0.45508
0.44531
0.43945
0.44922
0.44531
0.43945
0.44531
0.43945
0.44922
0.44531
0.44922
0.45508
0.44922
0.44922
0.44922
0.44922
0.44922
0.44922
0.45508
0.46094
0.45508
0.45508
0.45508
0.46094
0.46484
0.4707
0.49023
0.50586
0.50977
0.53516
0.56055
0.54492
0.51953
0.5
0.46484
0.45508
0.45508
0.45508
0.44922
0.43555
0.42969
0.43945
0.43945
0.44531
0.46484
0.55469
0.66406
0.86523
0.91406
0.36523
-0.42383
-0.49805
0.0097656
0.33008
0.46094
0.49023
0.51563
0.52539
0.5293
0.5293
0.53516
0.54492
0.56055
0.55469
0.55078
0.57031
0.56445
0.57422
0.58984
0.5957
0.59961
0.61914
0.64063
0.66016
0.66406
0.67969
0.68945
0.70898
0.70508
0.68945
0.66992
0.65039
0.61914
0.58984
0.56055
0.53516
0.50977
0.49414
0.48047
0.4707
0.46484
0.4707
0.47461
0.4707
0.4707
0.4707
0.47461
0.47461
0.4707
0.4707
0.4707
0.46484
0.46094
0.46484
0.4707
0.46484
0.47461
0.46484
0.46094
0.46094
0.45508
0.44922
0.44531
0.43945
0.44922
0.44922
0.44531
0.43945
0.43555
0.44922
0.44531
0.44922
0.45508
0.45508
0.45508
0.44922
0.44922
0.44531
0.44922
0.45508
0.45508
0.44922
0.43945
0.44922
0.45508
0.45508
0.45508
0.45508
0.47461
0.5
0.50586
0.5293
0.55078
0.54492
0.51563
0.50586
0.47461
0.44922
0.44922
0.43945
0.43555
0.42969
0.42969
0.42969
0.42969
0.42969
0.43945
0.51953
0.66016
0.88477
0.95898
0.42969
-0.42383
-0.49805
-0.048828
0.30078
0.43945
0.48047
0.5
0.50977
0.51953
0.52539
0.5293
0.5293
0.53516
0.54492
0.54492
0.55078
0.55469
0.56055
0.57031
0.58008
0.5957
0.60938
0.62891
0.64453
0.66016
0.67969
0.68555
0.69531
0.69922
0.68945
0.66406
0.64453
0.61523
0.58008
0.53906
0.50977
0.49023
0.4707
0.46094
0.45508
0.43945
0.44531
0.44531
0.44531
0.44531
0.43945
0.44531
0.44922
0.45508
0.45508
0.44922
0.44922
0.45508
0.44922
0.44922
0.44922
0.45508
0.44531
0.43945
0.42969
0.43555
0.42969
0.43555
0.42969
0.43555
0.42969
0.42969
0.42969
0.42578
0.42969
0.42969
0.43555
0.43555
0.42969
0.42969
0.43555
0.42969
0.43555
0.43555
0.43945
0.43945
0.44531
0.44531
0.44531
0.43945
0.43945
0.44922
0.45508
0.4707
0.49414
0.5
0.51563
0.55078
0.53906
0.50586
0.48438
0.45508
0.42969
0.42969
0.42969
0.43555
0.41602
0.41016
0.41016
0.41992
0.42578
0.42969
0.5
0.625
0.81445
0.90039
0.42578
-0.39844
-0.49805
-0.13477
0.26953
0.43945
0.48047
0.5
0.50977
0.52539
0.52539
0.5293
0.53906
0.54492
0.55469
0.55078
0.56445
0.56445
0.57422
0.58984
0.5957
0.59961
0.61914
0.62891
0.65039
0.66406
0.68945
0.69531
0.70508
0.70898
0.69922
0.68555
0.66016
0.62891
0.58984
0.55469
0.52539
0.5
0.48047
0.4707
0.46094
0.45508
0.45508
0.44922
0.44531
0.44922
0.44922
0.45508
0.45508
0.45508
0.45508
0.44922
0.45508
0.45508
0.45508
0.45508
0.44922
0.45508
0.45508
0.44531
0.43945
0.43945
0.44531
0.43555
0.43945
0.43945
0.43945
0.42969
0.42969
0.43945
0.44531
0.43945
0.44531
0.43945
0.44922
0.44922
0.44922
0.43945
0.43945
0.44531
0.45508
0.44531
0.44531
0.44922
0.44922
0.43945
0.43945
0.44922
0.45508
0.44922
0.45508
0.4707
0.49023
0.50586
0.50977
0.54492
0.55078
0.52539
0.50586
0.47461
0.43945
0.43945
0.44531
0.44922
0.43945
0.42969
0.42969
0.43555
0.43555
0.43555
0.4707
0.57422
0.70508
0.88867
0.89453
0.12109
-0.49805
-0.4043
0.095703
0.38086
0.4707
0.49023
0.50977
0.52539
0.5293
0.53906
0.55078
0.54492
0.53906
0.55078
0.55469
0.55469
0.57031
0.57422
0.58398
0.5957
0.60547
0.61914
0.64063
0.65039
0.66992
0.68555
0.68945
0.69922
0.70508
0.69531
0.66992
0.64453
0.61523
0.57422
0.53516
0.50977
0.49414
0.48047
0.47461
0.47461
0.46094
0.45508
0.45508
0.44922
0.45508
0.44922
0.45508
0.45508
0.44922
0.44922
0.45508
0.45508
0.45508
0.45508
0.46484
0.45508
0.44531
0.44531
0.44922
0.44531
0.43555
0.43945
0.44531
0.44531
0.43945
0.42969
0.43555
0.43945
0.42969
0.43945
0.44531
0.43945
0.43945
0.43555
0.43945
0.44531
0.44922
0.44531
0.44531
0.43555
0.44531
0.44922
0.44922
0.45508
0.45508
0.44922
0.44922
0.45508
0.45508
0.44922
0.46484
0.49023
0.50586
0.51953
0.55469
0.54492
0.50977
0.5
0.4707
0.44531
0.44531
0.44922
0.43945
0.42969
0.42578
0.42969
0.43945
0.42969
0.44922
0.51953
0.62891
0.82422
0.93555
0.5957
-0.21484
-0.49805
-0.14844
0.23438
0.41602
0.48047
0.5
0.51563
0.51953
0.51563
0.53516
0.54492
0.53906
0.54492
0.55078
0.55469
0.55078
0.56445
0.57031
0.58398
0.5957
0.61523
0.625
0.64063
0.65039
0.66406
0.67969
0.68945
0.68555
0.68555
0.66406
0.6543
0.625
0.58984
0.55469
0.52539
0.5
0.48047
0.46484
0.45508
0.45508
0.45508
0.44922
0.44531
0.44922
0.44922
0.45508
0.44922
0.45508
0.45508
0.45508
0.45508
0.44922
0.44922
0.44922
0.44531
0.44531
0.44922
0.44531
0.43945
0.42969
0.42969
0.43555
0.43555
0.42969
0.42969
0.42578
0.42969
0.42969
0.42969
0.42969
0.42969
0.42969
0.43555
0.43555
0.42969
0.43555
0.42969
0.43555
0.43555
0.42969
0.42969
0.43555
0.43555
0.44531
0.43945
0.43945
0.44922
0.44531
0.45508
0.47461
0.49414
0.50586
0.53516
0.55078
0.5293
0.50586
0.48047
0.44922
0.43555
0.44531
0.43945
0.43555
0.42578
0.42578
0.42969
0.42969
0.42969
0.45508
0.56055
0.71484
0.93555
0.95508
0.23438
-0.49805
-0.47852
0.041016
0.35547
0.46094
0.49023
0.50586
0.51563
0.52539
0.5293
0.5293
0.54492
0.55078
0.55078
0.56055
0.56445
0.57031
0.58008
0.58398
0.5957
0.61523
0.625
0.64453
0.66406
0.67969
0.69531
0.70508
0.70898
0.71484
0.69922
0.67969
0.65039
0.60938
0.57031
0.53906
0.51563
0.49023
0.47461
0.46484
0.46094
0.46094
0.44922
0.44531
0.43945
0.44531
0.44922
0.45508
0.44922
0.44922
0.45508
0.44922
0.45508
0.44922
0.44922
0.45508
0.45508
0.45508
0.45508
0.45508
0.45508
0.43945
0.44531
0.44531
0.43945
0.43945
0.43945
0.44531
0.44531
0.43945
0.43555
0.43555
0.43945
0.43945
0.43555
0.43555
0.44531
0.43945
0.43945
0.44531
0.43945
0.44531
0.44922
0.44922
0.44922
0.44922
0.44922
0.44922
0.45508
0.45508
0.46094
0.4707
0.49023
0.50586
0.51563
0.54492
0.56055
0.53516
0.50586
0.48047
0.44531
0.43945
0.44922
0.44531
0.43555
0.42969
0.42969
0.42969
0.42969
0.43945
0.47461
0.58398
0.75
0.91406
0.68555
-0.070313
-0.49805
-0.34961
0.16992
0.41016
0.48438
0.50586
0.52539
0.5293
0.53906
0.54492
0.54492
0.54492
0.55078
0.56055
0.56055
0.57031
0.57422
0.58398
0.5957
0.60547
0.61914
0.63477
0.65039
0.66992
0.68555
0.69922
0.70508
0.71484
0.71484
0.69922
0.67969
0.6543
0.61523
0.58008
0.54492
0.51563
0.5
0.48438
0.47461
0.46094
0.45508
0.44922
0.45508
0.45508
0.44922
0.45508
0.45508
0.45508
0.45508
0.46094
0.46094
0.46484
0.46484
0.46484
0.45508
0.45508
0.45508
0.45508
0.45508
0.45508
0.45508
0.44531
0.43945
0.44531
0.43945
0.44531
0.44531
0.43945
0.43945
0.44922
0.44922
0.44531
0.43555
0.44531
0.43945
0.44922
0.44922
0.44922
0.44531
0.44531
0.44531
0.44531
0.44922
0.44922
0.44922
0.44922
0.44531
0.44922
0.44922
0.44922
0.47461
0.49414
0.50586
0.50977
0.54492
0.55469
0.52539
0.49414
0.47461
0.44531
0.43945
0.44922
0.44922
0.43945
0.42969
0.42969
0.43555
0.43945
0.43555
0.4707
0.57422
0.72461
0.88867
0.69531
-0.029297
-0.49805
-0.35352
0.14063
0.38086
0.46094
0.48438
0.5
0.50586
0.51563
0.51953
0.5293
0.5293
0.5293
0.5293
0.53906
0.55078
0.56055
0.57031
0.57031
0.57422
0.58984
0.61523
0.62891
0.64453
0.6543
0.66406
0.68555
0.69531
0.68945
0.68555
0.66406
0.64063
0.60547
0.57031
0.5293
0.50586
0.48047
0.46484
0.46094
0.45508
0.44922
0.45508
0.44531
0.44922
0.44922
0.44531
0.44922
0.44531
0.45508
0.45508
0.45508
0.45508
0.46094
0.46094
0.44922
0.44531
0.45508
0.44922
0.45508
0.44922
0.43945
0.43945
0.43945
0.43555
0.44531
0.43945
0.43555
0.43945
0.43555
0.43555
0.42969
0.42969
0.42969
0.42969
0.43555
0.44922
0.44922
0.44531
0.43945
0.44531
0.44531
0.44531
0.43945
0.44922
0.44922
0.45508
0.44922
0.45508
0.45508
0.46484
0.48047
0.50586
0.50586
0.53516
0.55078
0.51953
0.50586
0.48047
0.44531
0.43945
0.44531
0.44922
0.43945
0.42969
0.42969
0.42578
0.42969
0.43945
0.49023
0.58984
0.7793
0.92969
0.66992
-0.09375
-0.49805
-0.23438
0.20117
0.39453
0.46484
0.49023
0.50586
0.51563
0.51953
0.52539
0.5293
0.53516
0.53516
0.55078
0.55078
0.55469
0.56055
0.57031
0.57422
0.58398
0.59961
0.61914
0.63477
0.6543
0.67969
0.68945
0.68555
0.69531
0.69922
0.67969
0.65039
0.61914
0.58984
0.56055
0.53516
0.50586
0.49023
0.48047
0.46484
0.45508
0.45508
0.45508
0.45508
0.45508
0.45508
0.45508
0.45508
0.46484
0.46484
0.46484
0.46094
0.46094
0.46484
0.4707
0.4707
0.46484
0.46094
0.45508
0.45508
0.45508
0.44922
0.44922
0.44531
0.44531
0.44531
0.44922
0.44531
0.44531
0.44531
0.43945
0.43555
0.44531
0.44531
0.43945
0.44531
0.44922
0.44922
0.45508
0.45508
0.45508
0.45508
0.45508
0.45508
0.45508
0.45508
0.45508
0.46094
0.45508
0.45508
0.46484
0.49023
0.51563
0.51953
0.53906
0.55469
0.5293
0.50586
0.49023
0.46094
0.44531
0.44922
0.43555
0.43555
0.42969
0.42969
0.42969
0.43555
0.43945
0.46484
0.57031
0.73047
0.92969
0.76953
0.064453
-0.49805
-0.42383
0.12109
0.38477
0.47461
0.5
0.50977
0.52539
0.5293
0.53906
0.54492
0.55078
0.55078
0.55469
0.56055
0.57422
0.57422
0.58398
0.58398
0.5957
0.60938
0.63477
0.6543
0.66406
0.66992
0.68945
0.70508
0.70898
0.70508
0.68945
0.67578
0.65039
0.61523
0.58008
0.55078
0.51953
0.5
0.48047
0.47461
0.46484
0.46094
0.45508
0.45508
0.45508
0.45508
0.45508
0.45508
0.45508
0.46094
0.46094
0.46094
0.46094
0.46094
0.46484
0.4707
0.45508
0.46094
0.45508
0.45508
0.45508
0.45508
0.45508
0.45508
0.45508
0.45508
0.44922
0.45508
0.44922
0.44531
0.44531
0.44922
0.44922
0.44922
0.44922
0.45508
0.44922
0.45508
0.45508
0.45508
0.45508
0.45508
0.45508
0.45508
0.45508
0.45508
0.45508
0.45508
0.45508
0.45508
0.46094
0.48047
0.5
0.51563
0.51953
0.55469
0.56445
0.52539
0.5
0.4707
0.43945
0.43945
0.44922
0.45508
0.43555
0.42969
0.42969
0.43555
0.44531
0.44922
0.49414
0.60547
0.7793
0.90039
0.56055
-0.23438
-0.49805
-0.21875
0.23047
0.43555
0.5
0.51563
0.52539
0.53906
0.55078
0.55469
0.55078
0.55469
0.56445
0.57031
0.57031
0.57422
0.58008
0.5957
0.5957
0.60938
0.625
0.64453
0.6543
0.66992
0.68945
0.70508
0.71484
0.72461
0.71484
0.69922
0.67969
0.65039
0.61523
0.58398
0.55469
0.51953
0.5
0.48438
0.48047
0.47461
0.48047
0.4707
0.46484
0.46094
0.46094
0.4707
0.47461
0.46484
0.4707
0.47461
0.48047
0.47461
0.47461
0.4707
0.4707
0.47461
0.4707
0.46484
0.46484
0.4707
0.46094
0.46484
0.45508
0.45508
0.44922
0.45508
0.44531
0.45508
0.44531
0.45508
0.46094
0.45508
0.44922
0.44922
0.45508
0.46094
0.45508
0.45508
0.44922
0.45508
0.45508
0.45508
0.46484
0.46094
0.45508
0.45508
0.45508
0.46094
0.4707
0.48047
0.49414
0.51953
0.52539
0.55078
0.57422
0.54492
0.51953
0.5
0.46484
0.45508
0.46094
0.45508
0.44531
0.44531
0.43945
0.44531
0.44922
0.45508
0.48047
0.58398
0.71484
0.88867
0.9043
0.125
-0.49805
-0.375
0.11523
0.38086
0.47461
0.50586
0.52539
0.5293
0.53516
0.54492
0.53906
0.53906
0.54492
0.55469
0.55469
0.56445
0.57422
0.58008
0.58984
0.5957
0.60938
0.61914
0.64063
0.6543
0.66992
0.67969
0.68945
0.68945
0.69531
0.68945
0.67969
0.65039
0.61523
0.57422
0.54492
0.52539
0.50977
0.49023
0.48047
0.46094
0.45508
0.45508
0.46484
0.46094
0.45508
0.4707
0.4707
0.46094
0.46094
0.46484
0.46094
0.46484
0.4707
0.47461
0.48047
0.47461
0.46484
0.46094
0.46094
0.46484
0.46094
0.46094
0.46484
0.44922
0.44531
0.44922
0.45508
0.45508
0.46094
0.45508
0.44531
0.44531
0.44531
0.44922
0.45508
0.45508
0.45508
0.45508
0.46094
0.45508
0.46094
0.45508
0.44922
0.44922
0.46094
0.46484
0.46484
0.4707
0.46484
0.46484
0.48438
0.50586
0.50977
0.5293
0.56445
0.54492
0.52539
0.5
0.47461
0.44922
0.45508
0.45508
0.44531
0.43945
0.42969
0.43555
0.43945
0.44531
0.45508
0.54492
0.68945
0.9043
0.95898
0.32422
-0.47852
-0.49805
0.015625
0.32422
0.44922
0.49023
0.5
0.51953
0.52539
0.5293
0.5293
0.53516
0.54492
0.55078
0.55469
0.56055
0.57422
0.57422
0.57422
0.58398
0.59961
0.61523
0.62891
0.64453
0.66406
0.67969
0.68945
0.69531
0.69922
0.68945
0.66992
0.64063
0.59961
0.57422
0.55078
0.51953
0.49414
0.48047
0.4707
0.45508
0.44922
0.45508
0.45508
0.44922
0.44531
0.45508
0.45508
0.45508
0.45508
0.45508
0.45508
0.45508
0.45508
0.46094
0.46484
0.4707
0.45508
0.45508
0.45508
0.45508
0.44922
0.44531
0.44531
0.43945
0.44531
0.44531
0.44531
0.43555
0.43555
0.43555
0.43945
0.43945
0.44922
0.44531
0.44531
0.44922
0.44531
0.44531
0.44922
0.45508
0.44922
0.44531
0.44922
0.44922
0.44531
0.44922
0.45508
0.45508
0.45508
0.45508
0.46094
0.48047
0.50586
0.51563
0.53906
0.56445
0.54492
0.50977
0.49023
0.46094
0.43555
0.43945
0.44922
0.43945
0.43555
0.42969
0.43555
0.43945
0.43945
0.44922
0.53906
0.66992
0.875
0.92383
0.28516
-0.49805
-0.49805
0.0058594
0.33984
0.46484
0.5
0.52539
0.5293
0.53516
0.53906
0.55078
0.55078
0.55469
0.56055
0.57031
0.58008
0.58398
0.58984
0.59961
0.61523
0.61914
0.62891
0.64453
0.66406
0.68555
0.68945
0.70508
0.7207
0.7207
0.70898
0.68945
0.67578
0.64063
0.59961
0.57031
0.54492
0.50977
0.49023
0.48047
0.47461
0.46484
0.46094
0.46094
0.45508
0.46094
0.45508
0.46094
0.46484
0.45508
0.46094
0.46484
0.4707
0.4707
0.46484
0.46094
0.46484
0.46094
0.45508
0.45508
0.45508
0.45508
0.46094
0.44531
0.43945
0.43945
0.44922
0.44922
0.45508
0.44922
0.44922
0.44531
0.43945
0.44531
0.44922
0.44531
0.44531
0.44531
0.44922
0.45508
0.44922
0.45508
0.44922
0.45508
0.45508
0.45508
0.45508
0.46094
0.46094
0.46094
0.46094
0.4707
0.49023
0.50977
0.51953
0.53516
0.56055
0.55078
0.51953
0.5
0.4707
0.44531
0.43945
0.45508
0.44531
0.43555
0.43555
0.43945
0.43945
0.43555
0.44922
0.51953
0.63477
0.83008
0.90039
0.35938
-0.48438
-0.49805
-0.048828
0.31055
0.45508
0.5
0.51563
0.53516
0.54492
0.55078
0.55469
0.55469
0.56055
0.56055
0.56445
0.57422
0.57422
0.58398
0.5957
0.60938
0.61523
0.61914
0.64453
0.66016
0.68555
0.69531
0.69531
0.70898
0.71484
0.71484
0.69922
0.67578
0.64063
0.61523
0.58008
0.54492
0.51563
0.49414
0.47461
0.47461
0.48047
0.48047
0.47461
0.45508
0.46094
0.46484
0.4707
0.4707
0.47461
0.4707
0.46484
0.4707
0.48047
0.47461
0.4707
0.47461
0.46484
0.4707
0.47461
0.46484
0.46094
0.46484
0.46484
0.46094
0.46094
0.45508
0.44922
0.45508
0.44531
0.44922
0.45508
0.44922
0.45508
0.45508
0.45508
0.46094
0.46094
0.45508
0.45508
0.45508
0.45508
0.45508
0.45508
0.46094
0.46094
0.46484
0.4707
0.46094
0.45508
0.46094
0.48438
0.50586
0.51563
0.53906
0.57031
0.54492
0.51953
0.5
0.4707
0.44531
0.44922
0.45508
0.44922
0.43945
0.44531
0.44531
0.44922
0.44531
0.46484
0.56055
0.66406
0.86914
0.92383
0.375
-0.43359
-0.49805
-0.0039063
0.32422
0.46094
0.49023
0.50977
0.51953
0.52539
0.5293
0.54492
0.53906
0.53906
0.55078
0.55469
0.56055
0.56445
0.57422
0.58008
0.5957
0.5957
0.61914
0.62891
0.64453
0.66016
0.67578
0.68945
0.69531
0.70508
0.69922
0.66992
0.64453
0.61914
0.58984
0.57031
0.53906
0.50977
0.49023
0.48047
0.47461
0.4707
0.46484
0.46094
0.46484
0.46484
0.45508
0.46484
0.4707
0.46484
0.4707
0.47461
0.47461
0.47461
0.47461
0.46484
0.4707
0.46484
0.46094
0.45508
0.46094
0.45508
0.45508
0.45508
0.45508
0.44922
0.44531
0.44922
0.44531
0.44922
0.44922
0.45508
0.44922
0.44531
0.43555
0.44531
0.44922
0.44531
0.43555
0.43945
0.44531
0.44922
0.44531
0.44922
0.44531
0.44922
0.43945
0.44531
0.44531
0.43945
0.46094
0.49023
0.50586
0.50586
0.53906
0.55078
0.51563
0.5
0.47461
0.43945
0.43555
0.43945
0.43555
0.42969
0.41992
0.42578
0.42969
0.43555
0.43555
0.48438
0.60938
0.80469
0.93945
0.57422
-0.21875
-0.49805
-0.22461
0.21094
0.41602
0.47461
0.5
0.51563
0.52539
0.5293
0.5293
0.53516
0.54492
0.55078
0.55078
0.56055
0.57031
0.56445
0.56055
0.58008
0.5957
0.60938
0.625
0.64453
0.66406
0.67578
0.69531
0.70898
0.69922
0.69922
0.68555
0.66406
0.64063
0.59961
0.57031
0.53906
0.50977
0.49023
0.47461
0.45508
0.45508
0.44922
0.45508
0.44922
0.45508
0.45508
0.44922
0.45508
0.45508
0.45508
0.45508
0.45508
0.46094
0.46094
0.46094
0.45508
0.45508
0.45508
0.45508
0.44922
0.45508
0.45508
0.44922
0.44922
0.44922
0.43945
0.43945
0.43945
0.44531
0.43555
0.42969
0.42969
0.42969
0.42969
0.43555
0.43945
0.43945
0.43945
0.43555
0.44531
0.43555
0.43945
0.43945
0.43945
0.43945
0.43555
0.43945
0.44531
0.44922
0.45508
0.46484
0.49414
0.50586
0.50977
0.54492
0.56055
0.52539
0.5
0.48047
0.43945
0.43945
0.44531
0.44922
0.43555
0.42969
0.42969
0.42969
0.43555
0.43555
0.46484
0.58008
0.73438
0.9043
0.66406
-0.048828
-0.49805
-0.34375
0.16016
0.41016
0.48438
0.50977
0.52539
0.54492
0.55078
0.54492
0.55078
0.55469
0.56445
0.57031
0.57422
0.58398
0.5957
0.59961
0.61523
0.61914
0.63477
0.65039
0.66406
0.68555
0.70898
0.7207
0.72461
0.73438
0.73047
0.72461
0.70508
0.67578
0.64063
0.59961
0.57031
0.53906
0.50977
0.5
0.48047
0.48047
0.48047
0.47461
0.46484
0.46484
0.46484
0.46094
0.45508
0.46484
0.46484
0.46484
0.46484
0.46484
0.46484
0.46484
0.4707
0.46094
0.46484
0.45508
0.44922
0.44531
0.44531
0.44531
0.43945
0.43945
0.43555
0.43945
0.44531
0.44922
0.43945
0.43555
0.43945
0.44531
0.43555
0.42969
0.43555
0.43945
0.43945
0.43945
0.44531
0.44531
0.44531
0.44531
0.44922
0.44531
0.44531
0.44922
0.44922
0.44922
0.44922
0.44922
0.46484
0.49023
0.50586
0.50586
0.53516
0.56055
0.53516
0.50586
0.48438
0.44922
0.42969
0.43555
0.43945
0.43555
0.42969
0.42578
0.42969
0.42969
0.42969
0.44922
0.56055
0.69922
0.86914
0.73438
0.070313
-0.49805
-0.43359
0.099609
0.38086
0.47461
0.5
0.50977
0.5293
0.5293
0.53516
0.53906
0.54492
0.54492
0.56055
0.55469
0.56055
0.57422
0.58398
0.58984
0.5957
0.60938
0.61523
0.625
0.64453
0.66992
0.68945
0.69922
0.70898
0.71484
0.69922
0.68555
0.66016
0.625
0.58398
0.55078
0.51953
0.5
0.48047
0.4707
0.46094
0.45508
0.44922
0.45508
0.46094
0.45508
0.45508
0.45508
0.45508
0.45508
0.46094
0.45508
0.46094
0.45508
0.46094
0.45508
0.46094
0.46484
0.45508
0.45508
0.45508
0.45508
0.45508
0.43945
0.43555
0.43555
0.44531
0.43945
0.44531
0.44922
0.43945
0.44531
0.44922
0.44531
0.44922
0.44531
0.43945
0.44531
0.44922
0.44531
0.44531
0.44922
0.45508
0.44922
0.45508
0.45508
0.45508
0.45508
0.45508
0.45508
0.45508
0.44531
0.46484
0.49023
0.50586
0.50586
0.53906
0.56055
0.5293
0.50586
0.48438
0.44922
0.45508
0.45508
0.44922
0.43555
0.42969
0.42969
0.43555
0.42969
0.43945
0.46484
0.58008
0.73438
0.91406
0.72461
0.041016
-0.49805
-0.34961
0.13477
0.39063
0.47461
0.50586
0.51563
0.52539
0.53906
0.53516
0.53516
0.5293
0.54492
0.55078
0.55469
0.56055
0.57422
0.57422
0.58008
0.58984
0.60547
0.61914
0.64063
0.65039
0.66406
0.67969
0.68945
0.69531
0.68945
0.68555
0.66992
0.64063
0.61523
0.57422
0.54492
0.52539
0.50977
0.48438
0.46484
0.47461
0.4707
0.46094
0.46484
0.46484
0.46094
0.46094
0.4707
0.46484
0.46484
0.4707
0.4707
0.47461
0.4707
0.46484
0.4707
0.4707
0.46094
0.46094
0.45508
0.45508
0.45508
0.45508
0.45508
0.45508
0.45508
0.44531
0.44922
0.44531
0.43945
0.43945
0.43555
0.44531
0.44531
0.44531
0.43945
0.43945
0.44922
0.44922
0.45508
0.44922
0.45508
0.44531
0.44531
0.44531
0.45508
0.45508
0.45508
0.46094
0.45508
0.45508
0.46094
0.47461
0.49023
0.50586
0.50977
0.53906
0.56445
0.54492
0.51563
0.5
0.4707
0.44922
0.44922
0.44922
0.44531
0.43945
0.43555
0.43555
0.43945
0.43945
0.46094
0.54492
0.67969
0.875
0.91406
0.25977
-0.49805
-0.49805
0.019531
0.34961
0.47461
0.50586
0.51563
0.5293
0.54492
0.55078
0.55078
0.55469
0.55469
0.56445
0.57422
0.57422
0.58008
0.58398
0.5957
0.5957
0.60547
0.61914
0.64063
0.6543
0.66992
0.68945
0.69922
0.70898
0.71484
0.70508
0.68945
0.66992
0.62891
0.5957
0.57031
0.53906
0.50586
0.49414
0.48047
0.46484
0.46484
0.46484
0.45508
0.45508
0.46094
0.45508
0.46094
0.45508
0.46094
0.4707
0.46094
0.46094
0.46094
0.46094
0.46484
0.46094
0.46094
0.46484
0.46094
0.45508
0.45508
0.45508
0.45508
0.44922
0.44531
0.44922
0.44531
0.44922
0.44531
0.43945
0.43945
0.44531
0.44922
0.45508
0.44531
0.44531
0.44531
0.44922
0.45508
0.45508
0.44922
0.44922
0.45508
0.45508
0.46094
0.45508
0.45508
0.45508
0.46094
0.46094
0.45508
0.45508
0.47461
0.5
0.51953
0.51953
0.55469
0.56445
0.5293
0.50586
0.48438
0.44922
0.43945
0.44531
0.45508
0.44922
0.43555
0.43555
0.43945
0.44531
0.44922
0.48438
0.58398
0.73438
0.89453
0.61523
-0.10938
-0.49805
-0.28516
0.18555
0.41992
0.49414
0.50977
0.52539
0.52539
0.53516
0.54492
0.55078
0.55469
0.56055
0.56055
0.56055
0.57031
0.57422
0.58984
0.58984
0.5957
0.61523
0.625
0.64063
0.66016
0.67969
0.69531
0.70898
0.70898
0.71484
0.70508
0.68945
0.66016
0.625
0.58398
0.54492
0.52539
0.50586
0.48047
0.47461
0.46094
0.46094
0.46094
0.45508
0.45508
0.45508
0.46484
0.4707
0.45508
0.46094
0.45508
0.46094
0.46484
0.4707
0.46484
0.4707
0.46094
0.46484
0.45508
0.46484
0.46484
0.46094
0.45508
0.44531
0.43945
0.44531
0.44922
0.45508
0.44922
0.44922
0.44531
0.45508
0.44922
0.45508
0.44922
0.44531
0.45508
0.45508
0.45508
0.45508
0.44922
0.45508
0.44922
0.45508
0.45508
0.46094
0.45508
0.45508
0.46094
0.45508
0.46094
0.47461
0.49023
0.50586
0.51563
0.54492
0.56445
0.53906
0.50586
0.48438
0.45508
0.44922
0.45508
0.45508
0.44531
0.43555
0.43945
0.42969
0.43945
0.44531
0.48047
0.58984
0.73438
0.91016
0.76953
0.11133
-0.49805
-0.34961
0.125
0.375
0.46484
0.50586
0.51563
0.50977
0.52539
0.53516
0.53906
0.54492
0.55078
0.55078
0.55078
0.55469
0.56445
0.57422
0.58008
0.58984
0.59961
0.61523
0.63477
0.64453
0.66016
0.66992
0.67969
0.67969
0.68945
0.67969
0.66406
0.64453
0.61523
0.58398
0.54492
0.51953
0.49023
0.48047
0.4707
0.46094
0.46484
0.46484
0.46094
0.46094
0.46094
0.46094
0.46094
0.45508
0.45508
0.46094
0.46094
0.46094
0.46484
0.46484
0.4707
0.46094
0.46094
0.45508
0.44922
0.44922
0.45508
0.44922
0.44531
0.44922
0.45508
0.43945
0.43555
0.43555
0.43945
0.44531
0.44922
0.45508
0.44922
0.43945
0.43945
0.43555
0.44531
0.44531
0.44531
0.43945
0.44531
0.45508
0.45508
0.44922
0.44531
0.45508
0.45508
0.44922
0.45508
0.47461
0.49414
0.50586
0.52539
0.56055
0.53906
0.50586
0.48047
0.46094
0.44531
0.44531
0.43945
0.42969
0.41992
0.41992
0.42969
0.43555
0.42969
0.44531
0.53906
0.68555
0.88867
0.93555
0.28516
-0.49805
-0.49805
0.019531
0.33984
0.44922
0.48047
0.5
0.51563
0.51953
0.52539
0.53516
0.54492
0.55078
0.55078
0.55078
0.56055
0.56445
0.57031
0.57031
0.58008
0.5957
0.61523
0.625
0.65039
0.66406
0.68555
0.69531
0.69531
0.69531
0.68945
0.67578
0.65039
0.61523
0.58008
0.55078
0.52539
0.5
0.48047
0.46484
0.45508
0.44922
0.44922
0.43945
0.43945
0.43945
0.43945
0.43945
0.44531
0.45508
0.45508
0.44922
0.45508
0.44531
0.45508
0.45508
0.45508
0.45508
0.45508
0.45508
0.44922
0.43945
0.43945
0.43945
0.43945
0.43555
0.42969
0.44531
0.44922
0.43945
0.44531
0.43945
0.44531
0.43945
0.44531
0.44531
0.43945
0.43945
0.44531
0.44531
0.44531
0.44531
0.43945
0.44531
0.44922
0.44922
0.44922
0.45508
0.44922
0.45508
0.46484
0.49023
0.50586
0.50977
0.54492
0.55078
0.51953
0.5
0.47461
0.43945
0.43945
0.44922
0.43555
0.42969
0.42578
0.42969
0.43555
0.43945
0.43945
0.46484
0.58008
0.75977
0.91016
0.625
-0.14453
-0.49805
-0.30859
0.17969
0.41602
0.49023
0.50586
0.52539
0.5293
0.53906
0.55078
0.55078
0.55469
0.56055
0.56445
0.57031
0.57422
0.57422
0.58984
0.58984
0.60547
0.61914
0.63477
0.64453
0.66016
0.68555
0.69531
0.69922
0.70508
0.70508
0.69922
0.68555
0.65039
0.61523
0.58008
0.55078
0.52539
0.50586
0.48047
0.4707
0.46094
0.46094
0.45508
0.45508
0.45508
0.45508
0.45508
0.45508
0.45508
0.46094
0.46484
0.46094
0.46094
0.46094
0.46094
0.46094
0.45508
0.45508
0.46094
0.46094
0.45508
0.45508
0.44922
0.44922
0.43945
0.44531
0.43555
0.44531
0.44531
0.44922
0.44922
0.44922
0.44531
0.44531
0.44922
0.44531
0.43945
0.43945
0.44531
0.44922
0.45508
0.45508
0.44922
0.44922
0.44922
0.45508
0.45508
0.45508
0.44922
0.44922
0.46484
0.48438
0.5
0.51563
0.56055
0.57031
0.52539
0.5
0.47461
0.43555
0.43945
0.43555
0.44531
0.43555
0.42969
0.42969
0.43555
0.42969
0.42969
0.47461
0.58398
0.75391
0.88477
0.58008
-0.19922
-0.49805
-0.26367
0.20117
0.41992
0.48438
0.50586
0.51563
0.52539
0.53516
0.54492
0.54492
0.54492
0.55078
0.56055
0.56445
0.56445
0.57422
0.57422
0.58984
0.5957
0.61914
0.62891
0.63477
0.65039
0.66992
0.68945
0.69922
0.70508
0.70508
0.69531
0.67969
0.65039
0.61523
0.58398
0.55469
0.52539
0.5
0.48047
0.4707
0.4707
0.4707
0.46484
0.44922
0.46094
0.46094
0.46484
0.46484
0.46484
0.46484
0.46094
0.46094
0.46484
0.4707
0.48047
0.47461
0.4707
0.46484
0.46484
0.45508
0.44922
0.45508
0.45508
0.46094
0.45508
0.45508
0.45508
0.45508
0.45508
0.44922
0.45508
0.45508
0.44922
0.44922
0.44922
0.44922
0.45508
0.44922
0.46094
0.45508
0.44922
0.45508
0.45508
0.45508
0.45508
0.45508
0.46484
0.4707
0.46094
0.46484
0.48438
0.50586
0.51563
0.53906
0.55469
0.53906
0.51563
0.5
0.47461
0.45508
0.45508
0.44531
0.43945
0.42969
0.44531
0.43555
0.43555
0.43555
0.46484
0.56055
0.67578
0.875
0.91992
0.30469
-0.48828
-0.49805
0.025391
0.33594
0.45508
0.49414
0.50586
0.51953
0.52539
0.53516
0.5293
0.53906
0.54492
0.55078
0.55469
0.55078
0.55078
0.56445
0.57031
0.57422
0.5957
0.61523
0.625
0.63477
0.64453
0.66406
0.67969
0.68945
0.69922
0.68945
0.66992
0.64453
0.61914
0.58984
0.56055
0.52539
0.51563
0.49414
0.47461
0.46484
0.45508
0.45508
0.45508
0.45508
0.46484
0.45508
0.45508
0.45508
0.45508
0.46484
0.46484
0.46094
0.45508
0.45508
0.46484
0.46094
0.46094
0.44922
0.44531
0.44922
0.44922
0.44922
0.44531
0.43945
0.42969
0.42969
0.43945
0.44531
0.43555
0.43555
0.43555
0.43945
0.43555
0.43945
0.43555
0.43945
0.43555
0.43555
0.44531
0.44922
0.44531
0.44531
0.44922
0.44922
0.44531
0.44531
0.45508
0.45508
0.45508
0.45508
0.46484
0.48438
0.50586
0.50977
0.55078
0.56055
0.52539
0.5
0.47461
0.43945
0.43555
0.43945
0.44531
0.42969
0.41992
0.41992
0.42969
0.43555
0.42969
0.48438
0.5957
0.78516
0.92383
0.5957
-0.22461
-0.49805
-0.24414
0.21484
0.41602
0.47461
0.5
0.51563
0.52539
0.52539
0.53906
0.53906
0.53906
0.55078
0.55078
0.56055
0.56445
0.57031
0.57422
0.58008
0.58984
0.60547
0.625
0.64453
0.65039
0.66406
0.67969
0.68945
0.69922
0.69531
0.68555
0.66406
0.64453
0.60547
0.57422
0.53516
0.50586
0.48438
0.4707
0.45508
0.45508
0.45508
0.44531
0.44531
0.44922
0.44922
0.44922
0.44922
0.44922
0.45508
0.45508
0.45508
0.45508
0.45508
0.44922
0.45508
0.44922
0.45508
0.45508
0.44922
0.43945
0.43555
0.44531
0.43945
0.43945
0.44531
0.43555
0.42969
0.43555
0.43555
0.43945
0.43555
0.44531
0.43555
0.43555
0.43945
0.43945
0.44531
0.44531
0.43945
0.43945
0.44531
0.43945
0.43945
0.44531
0.44922
0.45508
0.45508
0.44922
0.44922
0.45508
0.4707
0.49414
0.50977
0.50977
0.54492
0.55078
0.51953
0.50586
0.47461
0.43945
0.42969
0.43945
0.44531
0.42969
0.42969
0.42578
0.42969
0.43555
0.43945
0.48047
0.58398
0.75
0.89453
0.61914
-0.125
-0.49805
-0.29883
0.17578
0.4043
0.47461
0.5
0.51953
0.52539
0.52539
0.5293
0.53906
0.53906
0.54492
0.55469
0.56055
0.56445
0.57422
0.57422
0.58398
0.5957
0.59961
0.61523
0.62891
0.65039
0.66406
0.67969
0.69531
0.70508
0.69922
0.68945
0.67578
0.65039
0.61523
0.58008
0.54492
0.51953
0.5
0.48438
0.47461
0.46484
0.45508
0.45508
0.45508
0.45508
0.45508
0.45508
0.45508
0.45508
0.46094
0.46484
0.46094
0.46094
0.46094
0.46094
0.46094
0.46094
0.45508
0.46094
0.46484
0.45508
0.46094
0.44531
0.44531
0.44922
0.44531
0.43945
0.43555
0.44531
0.45508
0.45508
0.44922
0.45508
0.44922
0.43945
0.43555
0.44922
0.45508
0.45508
0.45508
0.45508
0.44922
0.45508
0.46094
0.46484
0.45508
0.44922
0.44531
0.44922
0.45508
0.46484
0.48047
0.50586
0.51563
0.51953
0.56055
0.57031
0.53906
0.50977
0.48047
0.44531
0.44531
0.44922
0.45508
0.44531
0.43945
0.43945
0.42969
0.43555
0.43945
0.48047
0.58984
0.71484
0.88477
0.70898
0.025391
-0.49805
-0.375
0.125
0.39063
0.47461
0.5
0.51953
0.5293
0.5293
0.53516
0.53906
0.55078
0.55078
0.55469
0.55469
0.56055
0.57031
0.57422
0.58008
0.5957
0.60938
0.61914
0.62891
0.64453
0.66406
0.67969
0.68945
0.69531
0.69531
0.69531
0.67578
0.65039
0.61914
0.58984
0.56445
0.5293
0.50586
0.48438
0.48047
0.47461
0.4707
0.46094
0.46094
0.46094
0.46484
0.46094
0.4707
0.47461
0.46484
0.46484
0.4707
0.47461
0.47461
0.46094
0.45508
0.46094
0.46484
0.46094
0.4707
0.4707
0.45508
0.44922
0.44922
0.45508
0.45508
0.44922
0.44531
0.43945
0.44531
0.44922
0.45508
0.44922
0.44922
0.44922
0.44922
0.45508
0.44922
0.44922
0.45508
0.44922
0.45508
0.45508
0.44922
0.44922
0.45508
0.45508
0.46484
0.4707
0.45508
0.46094
0.48438
0.50586
0.50977
0.53516
0.55469
0.53516
0.50977
0.49023
0.46094
0.45508
0.45508
0.44922
0.43945
0.43555
0.42969
0.42969
0.43555
0.43945
0.48047
0.58398
0.7207
0.91016
0.7793
0.13477
-0.49805
-0.38867
0.095703
0.36523
0.46094
0.49023
0.50586
0.50977
0.51953
0.5293
0.53906
0.54492
0.53906
0.53906
0.55078
0.55469
0.56055
0.56445
0.57031
0.58008
0.5957
0.61523
0.62891
0.64453
0.64453
0.66406
0.67578
0.67969
0.68945
0.68555
0.66016
0.63477
0.61523
0.58398
0.55469
0.51953
0.49414
0.48047
0.4707
0.46484
0.45508
0.45508
0.45508
0.45508
0.45508
0.45508
0.45508
0.46094
0.46484
0.46094
0.46094
0.45508
0.45508
0.45508
0.46094
0.46094
0.46484
0.46484
0.46094
0.45508
0.45508
0.44922
0.44922
0.44531
0.44922
0.43945
0.43945
0.44531
0.44531
0.43945
0.44531
0.43945
0.44531
0.44922
0.44922
0.45508
0.44922
0.44531
0.44922
0.45508
0.45508
0.45508
0.45508
0.45508
0.45508
0.45508
0.45508
0.46484
0.46484
0.48047
0.5
0.51953
0.51563
0.56055
0.57031
0.51953
0.49414
0.4707
0.44531
0.44922
0.45508
0.44531
0.43555
0.42969
0.43555
0.43945
0.44531
0.44922
0.51953
0.65039
0.84375
0.91992
0.40039
-0.42383
-0.49805
-0.089844
0.29102
0.45508
0.49414
0.50977
0.52539
0.53516
0.53906
0.55078
0.55078
0.56055
0.56445
0.57031
0.57031
0.58008
0.58008
0.58984
0.5957
0.60938
0.61914
0.63477
0.65039
0.66992
0.68945
0.69922
0.70898
0.71484
0.70898
0.69531
0.67578
0.65039
0.61523
0.58008
0.55078
0.52539
0.50586
0.48438
0.47461
0.4707
0.46484
0.46484
0.46094
0.4707
0.4707
0.4707
0.4707
0.4707
0.4707
0.4707
0.47461
0.4707
0.4707
0.4707
0.47461
0.46484
0.46094
0.46094
0.46484
0.46094
0.46094
0.46094
0.46094
0.45508
0.45508
0.44922
0.45508
0.45508
0.45508
0.45508
0.45508
0.45508
0.44922
0.45508
0.46094
0.45508
0.45508
0.46094
0.46094
0.45508
0.44922
0.45508
0.46094
0.46094
0.46484
0.46094
0.46484
0.46094
0.4707
0.48438
0.50977
0.52539
0.52539
0.55469
0.56445
0.5293
0.50977
0.48438
0.44922
0.43945
0.45508
0.45508
0.43945
0.43555
0.43945
0.43945
0.44531
0.44922
0.49414
0.60547
0.76563
0.90039
0.58398
-0.16992
-0.49805
-0.24414
0.21094
0.42969
0.49414
0.51563
0.52539
0.53516
0.55078
0.55078
0.55469
0.56055
0.55078
0.56055
0.56445
0.57422
0.57422
0.58008
0.5957
0.59961
0.60938
0.61914
0.63477
0.66016
0.67969
0.69922
0.70508
0.70508
0.70898
0.69531
0.67969
0.6543
0.61914
0.58398
0.55469
0.52539
0.50977
0.5
0.48438
0.4707
0.46484
0.45508
0.45508
0.46094
0.46094
0.45508
0.45508
0.45508
0.46484
0.47461
0.4707
0.47461
0.4707
0.4707
0.4707
0.46094
0.46094
0.46484
0.46094
0.46094
0.45508
0.45508
0.44922
0.44922
0.44922
0.45508
0.44922
0.44922
0.44922
0.45508
0.45508
0.44922
0.44531
0.44531
0.44531
0.44531
0.44922
0.44531
0.45508
0.45508
0.45508
0.44922
0.45508
0.45508
0.46094
0.45508
0.45508
0.46094
0.4707
0.49414
0.50586
0.50977
0.5293
0.56055
0.54492
0.50977
0.49023
0.46484
0.44922
0.44922
0.45508
0.44531
0.43555
0.42969
0.42969
0.43555
0.42969
0.45508
0.54492
0.66992
0.85938
0.91406
0.29102
-0.48438
-0.49805
0.015625
0.32422
0.44922
0.49023
0.50586
0.51953
0.5293
0.53516
0.53906
0.53906
0.54492
0.55078
0.55469
0.55469
0.56055
0.57031
0.57422
0.58984
0.59961
0.61523
0.62891
0.64063
0.6543
0.67578
0.67969
0.68945
0.69531
0.68945
0.66992
0.6543
0.625
0.5957
0.56055
0.53906
0.50977
0.49414
0.48047
0.48047
0.4707
0.46484
0.46094
0.46094
0.46094
0.46094
0.46094
0.4707
0.4707
0.47461
0.4707
0.4707
0.4707
0.4707
0.47461
0.46484
0.46484
0.46094
0.46094
0.45508
0.45508
0.45508
0.44922
0.44922
0.44922
0.45508
0.45508
0.45508
0.44922
0.44922
0.44922
0.44922
0.44531
0.44922
0.45508
0.45508
0.44922
0.45508
0.45508
0.45508
0.45508
0.45508
0.45508
0.46094
0.45508
0.45508
0.45508
0.45508
0.45508
0.46484
0.47461
0.5
0.50977
0.51953
0.56055
0.56445
0.52539
0.50586
0.48047
0.43945
0.44531
0.45508
0.45508
0.43945
0.42969
0.42969
0.43555
0.43945
0.44922
0.5
0.61523
0.79492
0.91016
0.50977
-0.28516
-0.49805
-0.16992
0.24023
0.43555
0.48438
0.50586
0.52539
0.5293
0.53516
0.54492
0.55078
0.55078
0.55469
0.56445
0.57422
0.57031
0.57422
0.58008
0.58984
0.59961
0.61523
0.625
0.64453
0.66016
0.67578
0.68945
0.69531
0.70508
0.70508
0.68945
0.66992
0.64453
0.60938
0.57422
0.55078
0.51953
0.5
0.48438
0.4707
0.46484
0.46094
0.45508
0.45508
0.45508
0.45508
0.45508
0.45508
0.45508
0.46094
0.46484
0.46484
0.46484
0.46484
0.46094
0.46094
0.45508
0.46094
0.46094
0.45508
0.45508
0.45508
0.45508
0.44922
0.43945
0.43945
0.44922
0.44922
0.44531
0.44922
0.44531
0.44531
0.43945
0.44922
0.44922
0.45508
0.44922
0.44531
0.44922
0.44922
0.45508
0.45508
0.45508
0.44922
0.45508
0.44922
0.45508
0.45508
0.45508
0.46094
0.46484
0.48047
0.49414
0.50586
0.51563
0.55078
0.56055
0.5293
0.5
0.4707
0.44531
0.44531
0.44922
0.44531
0.43945
0.43555
0.43555
0.43555
0.43555
0.44922
0.49414
0.59961
0.75977
0.89453
0.57422
-0.19922
-0.49805
-0.23438
0.21484
0.42969
0.49023
0.50586
0.51563
0.5293
0.54492
0.55078
0.55078
0.55078
0.55469
0.55469
0.56055
0.57031
0.57422
0.58398
0.58984
0.60547
0.61914
0.625
0.63477
0.6543
0.67578
0.68945
0.69531
0.69922
0.70898
0.69922
0.67969
0.65039
0.625
0.58984
0.56445
0.5293
0.50586
0.48438
0.48047
0.4707
0.46484
0.46484
0.46094
0.45508
0.46484
0.4707
0.46484
0.4707
0.46484
0.46484
0.46484
0.46484
0.46094
0.4707
0.46484
0.4707
0.4707
0.4707
0.46094
0.44922
0.45508
0.45508
0.45508
0.45508
0.45508
0.44922
0.45508
0.44922
0.44922
0.44922
0.45508
0.45508
0.44922
0.44922
0.45508
0.44531
0.44922
0.44922
0.45508
0.45508
0.45508
0.44922
0.45508
0.45508
0.46094
0.46094
0.45508
0.45508
0.4707
0.48438
0.50977
0.51563
0.54492
0.56445
0.55078
0.52539
0.50586
0.47461
0.46094
0.46484
0.46094
0.45508
0.43945
0.43945
0.44531
0.44531
0.44531
0.47461
0.57031
0.68945
0.875
0.91992
0.26953
-0.47852
-0.49805
0.050781
0.3457
0.46094
0.49414
0.50586
0.52539
0.52539
0.52539
0.53516
0.55078
0.54492
0.55078
0.55078
0.55469
0.56055
0.57422
0.57422
0.57422
0.5957
0.60547
0.61914
0.64063
0.6543
0.66406
0.67969
0.68945
0.68945
0.67969
0.66406
0.64453
0.61914
0.58398
0.55078
0.51953
0.5
0.48047
0.47461
0.46484
0.45508
0.45508
0.44922
0.44531
0.44922
0.44531
0.45508
0.45508
0.45508
0.45508
0.46094
0.45508
0.45508
0.45508
0.45508
0.45508
0.45508
0.44922
0.44922
0.43945
0.43555
0.43945
0.43945
0.43555
0.43555
0.43555
0.43555
0.43555
0.42969
0.43555
0.43945
0.44531
0.44922
0.43945
0.44531
0.43945
0.44531
0.44531
0.43945
0.44531
0.44922
0.44922
0.44922
0.44922
0.44922
0.45508
0.45508
0.45508
0.46484
0.49023
0.50977
0.51563
0.54492
0.56445
0.55078
0.51953
0.5
0.46484
0.44922
0.45508
0.45508
0.46094
0.44922
0.44531
0.44531
0.44922
0.45508
0.4707
0.55469
0.67969
0.87891
0.91992
0.26953
-0.49805
-0.49805
0.019531
0.3457
0.46484
0.50586
0.51953
0.5293
0.53516
0.54492
0.55078
0.55078
0.55078
0.56445
0.56445
0.57031
0.57422
0.57422
0.58398
0.5957
0.60547
0.61523
0.62891
0.64453
0.66406
0.67969
0.68555
0.68945
0.69531
0.68945
0.67969
0.66406
0.63477
0.5957
0.56055
0.53516
0.50977
0.49414
0.48047
0.46484
0.45508
0.45508
0.45508
0.45508
0.45508
0.45508
0.45508
0.45508
0.45508
0.45508
0.45508
0.46484
0.46094
0.46484
0.46484
0.46094
0.46094
0.46094
0.45508
0.45508
0.45508
0.44922
0.44922
0.44922
0.44922
0.44531
0.43945
0.44531
0.44922
0.43945
0.43945
0.43945
0.44531
0.44531
0.43945
0.43555
0.44531
0.44922
0.44531
0.44922
0.44531
0.44922
0.44922
0.44922
0.45508
0.45508
0.45508
0.45508
0.46094
0.48047
0.5
0.50586
0.5293
0.55469
0.54492
0.50977
0.49414
0.46094
0.43945
0.43945
0.45508
0.45508
0.43555
0.42969
0.42969
0.42969
0.43945
0.44922
0.5293
0.64063
0.83008
0.88477
0.3457
-0.48828
-0.49805
-0.044922
0.32031
0.44922
0.48438
0.50586
0.52539
0.5293
0.53906
0.53516
0.54492
0.55078
0.55469
0.56055
0.56055
0.56445
0.57422
0.58008
0.58984
0.5957
0.60938
0.625
0.64453
0.66406
0.67969
0.68945
0.69531
0.70508
0.70508
0.69531
0.67578
0.64453
0.59961
0.56445
0.53906
0.51563
0.49023
0.48047
0.46484
0.46484
0.4707
0.45508
0.45508
0.45508
0.46094
0.45508
0.45508
0.45508
0.46484
0.46484
0.46484
0.46484
0.46484
0.46484
0.4707
0.46094
0.46094
0.45508
0.45508
0.45508
0.45508
0.44922
0.44531
0.44531
0.44531
0.44531
0.44922
0.44922
0.44531
0.44531
0.44531
0.44531
0.44531
0.44922
0.44531
0.44531
0.44531
0.45508
0.44922
0.45508
0.44922
0.44531
0.44922
0.45508
0.44922
0.45508
0.46484
0.48047
0.5
0.50977
0.5293
0.56055
0.56445
0.52539
0.49414
0.45508
0.43945
0.43945
0.45508
0.44531
0.43945
0.43555
0.42969
0.43555
0.43945
0.46094
0.54492
0.64453
0.83008
0.89453
0.38477
-0.41406
-0.49805
-0.029297
0.31055
0.44922
0.49414
0.50977
0.51953
0.52539
0.52539
0.53906
0.55078
0.55078
0.55078
0.55078
0.56055
0.57031
0.58008
0.58398
0.58984
0.5957
0.60938
0.61914
0.64063
0.6543
0.66406
0.68555
0.69531
0.70508
0.68945
0.67578
0.66016
0.63477
0.59961
0.57031
0.54492
0.52539
0.50977
0.49023
0.49023
0.47461
0.4707
0.4707
0.46484
0.46094
0.46484
0.46484
0.46484
0.46484
0.47461
0.47461
0.47461
0.48047
0.47461
0.46484
0.46094
0.46484
0.46094
0.45508
0.45508
0.45508
0.45508
0.45508
0.45508
0.44922
0.43945
0.44531
0.44922
0.44531
0.44922
0.44531
0.44922
0.43945
0.44531
0.45508
0.45508
0.44922
0.44922
0.45508
0.45508
0.44922
0.44922
0.45508
0.45508
0.45508
0.45508
0.46484
0.48438
0.50586
0.50977
0.54492
0.56445
0.5293
0.50977
0.48438
0.44922
0.44531
0.45508
0.44531
0.43555
0.42969
0.42578
0.42969
0.42969
0.43945
0.4707
0.57422
0.72461
0.91406
0.74414
0.085938
-0.49805
-0.38477
0.11133
0.38086
0.4707
0.49023
0.50586
0.51953
0.52539
0.53516
0.53516
0.53906
0.55078
0.55469
0.55469
0.56445
0.56445
0.57422
0.58398
0.58398
0.5957
0.61523
0.62891
0.64453
0.66406
0.67969
0.68945
0.69531
0.69531
0.68945
0.67578
0.65039
0.61523
0.58398
0.56055
0.51953
0.5
0.48047
0.48047
0.4707
0.46094
0.46094
0.45508
0.45508
0.45508
0.44922
0.45508
0.45508
0.45508
0.45508
0.45508
0.46094
0.45508
0.45508
0.45508
0.45508
0.45508
0.44922
0.44922
0.44531
0.43945
0.44922
0.44922
0.44531
0.43555
0.43945
0.43555
0.43945
0.43945
0.44922
0.45508
0.43945
0.43945
0.43945
0.43945
0.43945
0.44922
0.45508
0.43945
0.44531
0.44531
0.44922
0.44922
0.45508
0.45508
0.44922
0.47461
0.49414
0.50586
0.51953
0.55469
0.56445
0.51953
0.49414
0.4707
0.43555
0.43945
0.44531
0.44922
0.43555
0.42969
0.43555
0.42969
0.42969
0.43945
0.49023
0.5957
0.77539
0.89453
0.55078
-0.25391
-0.49805
-0.21875
0.22461
0.42578
0.48438
0.50586
0.52539
0.53516
0.53906
0.54492
0.55078
0.55078
0.55469
0.56445
0.57031
0.57422
0.57422
0.58984
0.5957
0.60938
0.61523
0.62891
0.64453
0.66016
0.66992
0.68945
0.70898
0.70898
0.70898
0.69922
0.67578
0.6543
0.61914
0.58008
0.55078
0.51953
0.5
0.48047
0.4707
0.46484
0.46094
0.46094
0.45508
0.44922
0.45508
0.45508
0.45508
0.45508
0.46094
0.45508
0.46094
0.46094
0.46094
0.46484
0.46094
0.46094
0.45508
0.45508
0.45508
0.44922
0.44531
0.44531
0.43945
0.44922
0.44531
0.44531
0.43945
0.43555
0.43555
0.44531
0.43945
0.44531
0.43555
0.43945
0.44531
0.43945
0.43945
0.44531
0.44531
0.44922
0.44922
0.44922
0.44922
0.44922
0.44922
0.44922
0.45508
0.4707
0.48438
0.50586
0.51563
0.54492
0.55469
0.51953
0.49414
0.4707
0.43555
0.43555
0.43945
0.43555
0.42578
0.41602
0.41992
0.42578
0.42969
0.42969
0.46484
0.58008
0.73438
0.87891
0.58008
-0.1543
-0.49805
-0.26953
0.18555
0.41016
0.47461
0.5
0.50977
0.51953
0.52539
0.53516
0.53516
0.55078
0.54492
0.55078
0.55078
0.55469
0.56445
0.57422
0.58008
0.58984
0.59961
0.61523
0.62891
0.64453
0.66406
0.67578
0.68555
0.68945
0.68945
0.68945
0.66992
0.64063
0.60547
0.57422
0.55078
0.51953
0.49414
0.48047
0.46094
0.45508
0.45508
0.44922
0.45508
0.44922
0.45508
0.45508
0.45508
0.46094
0.45508
0.44922
0.45508
0.45508
0.45508
0.45508
0.45508
0.45508
0.44531
0.44531
0.45508
0.45508
0.44922
0.45508
0.44922
0.44531
0.43945
0.44922
0.43555
0.43555
0.43945
0.43945
0.43555
0.44531
0.45508
0.44531
0.43945
0.44922
0.45508
0.44922
0.44531
0.43945
0.45508
0.45508
0.45508
0.45508
0.45508
0.44922
0.45508
0.4707
0.48438
0.49414
0.5
0.5293
0.56445
0.53516
0.50977
0.49023
0.45508
0.43945
0.44531
0.45508
0.45508
0.43555
0.41602
0.41992
0.42578
0.42969
0.44922
0.53906
0.66992
0.875
0.91406
0.27539
-0.49805
-0.48828
0.015625
0.33594
0.44531
0.48047
0.5
0.51563
0.51563
0.52539
0.52539
0.5293
0.53516
0.53906
0.54492
0.55469
0.56055
0.55469
0.57031
0.57031
0.58008
0.5957
0.61523
0.63477
0.64453
0.66016
0.66992
0.67578
0.68555
0.67969
0.66406
0.64063
0.61523
0.58008
0.55469
0.52539
0.50586
0.48438
0.4707
0.45508
0.45508
0.45508
0.45508
0.45508
0.45508
0.45508
0.45508
0.45508
0.45508
0.46094
0.46484
0.46094
0.46484
0.45508
0.45508
0.45508
0.45508
0.45508
0.44922
0.43945
0.43945
0.44531
0.44531
0.43945
0.43945
0.43945
0.43555
0.43555
0.42969
0.42969
0.43945
0.43945
0.43945
0.43555
0.43945
0.43945
0.44531
0.44922
0.44531
0.44531
0.44922
0.44922
0.44922
0.45508
0.44922
0.44922
0.44922
0.45508
0.46484
0.48438
0.50586
0.50586
0.54492
0.57031
0.54492
0.50586
0.48047
0.44922
0.43945
0.44922
0.45508
0.43555
0.42969
0.42969
0.43555
0.43945
0.43945
0.46094
0.56055
0.68555
0.875
0.90039
0.17578
-0.49805
-0.48438
0.050781
0.35938
0.4707
0.50586
0.51953
0.52539
0.5293
0.53906
0.54492
0.54492
0.55078
0.56055
0.56445
0.57031
0.57422
0.58008
0.58984
0.5957
0.59961
0.61914
0.63477
0.64453
0.66016
0.67578
0.68945
0.70508
0.70898
0.71484
0.68945
0.66406
0.64063
0.59961
0.57031
0.53906
0.50977
0.49414
0.47461
0.4707
0.46484
0.46094
0.45508
0.45508
0.45508
0.45508
0.46094
0.45508
0.46484
0.4707
0.4707
0.46484
0.46484
0.4707
0.4707
0.45508
0.46094
0.46484
0.46484
0.46094
0.46094
0.45508
0.45508
0.45508
0.44922
0.44922
0.44922
0.45508
0.44922
0.45508
0.44922
0.44922
0.44922
0.44922
0.44922
0.45508
0.46094
0.46094
0.45508
0.45508
0.45508
0.46094
0.4707
0.4707
0.45508
0.45508
0.4707
0.49414
0.51563
0.51953
0.54492
0.57422
0.56055
0.52539
0.5
0.46484
0.44922
0.45508
0.46094
0.44922
0.42969
0.42969
0.43945
0.43945
0.44531
0.45508
0.53516
0.65039
0.83008
0.89453
0.34961
-0.45313
-0.49805
-0.039063
0.31055
0.46484
0.5
0.51953
0.5293
0.53906
0.54492
0.55078
0.55078
0.56055
0.56445
0.57031
0.56445
0.56445
0.57422
0.5957
0.5957
0.59961
0.61523
0.62891
0.64453
0.66406
0.67969
0.68945
0.69531
0.70898
0.70508
0.69922
0.66992
0.64063
0.61523
0.58008
0.54492
0.51953
0.50586
0.49023
0.47461
0.4707
0.46484
0.46094
0.46484
0.4707
0.4707
0.4707
0.4707
0.46094
0.46094
0.46484
0.4707
0.47461
0.4707
0.46484
0.46094
0.45508
0.46094
0.46484
0.45508
0.45508
0.45508
0.46094
0.45508
0.45508
0.45508
0.45508
0.44531
0.44531
0.44922
0.44531
0.44922
0.45508
0.44922
0.44922
0.44922
0.44922
0.45508
0.44922
0.45508
0.45508
0.45508
0.45508
0.46094
0.45508
0.45508
0.46094
0.47461
0.5
0.50977
0.51953
0.55469
0.56445
0.52539
0.5
0.48047
0.45508
0.44922
0.45508
0.43945
0.42969
0.42969
0.42969
0.43555
0.43945
0.45508
0.50977
0.60547
0.7793
0.91406
0.57031
-0.18945
-0.49805
-0.19336
0.2207
0.41992
0.48047
0.49414
0.50977
0.52539
0.5293
0.53516
0.5293
0.54492
0.55078
0.55078
0.55469
0.56055
0.56055
0.57031
0.57422
0.5957
0.59961
0.61914
0.62891
0.64453
0.66406
0.67578
0.68945
0.68945
0.68945
0.68555
0.66406
0.64063
0.60547
0.57422
0.54492
0.51563
0.49023
0.47461
0.46484
0.46484
0.46094
0.45508
0.45508
0.45508
0.46094
0.46484
0.45508
0.46094
0.46094
0.46094
0.46094
0.46094
0.46094
0.45508
0.45508
0.45508
0.45508
0.45508
0.45508
0.45508
0.45508
0.44531
0.43945
0.44531
0.43945
0.43555
0.43945
0.43945
0.44531
0.44531
0.43945
0.43945
0.44531
0.43945
0.43945
0.43945
0.44531
0.44922
0.44531
0.45508
0.45508
0.45508
0.45508
0.45508
0.44922
0.45508
0.46094
0.48438
0.50586
0.50977
0.5293
0.56055
0.53906
0.50977
0.49414
0.45508
0.43945
0.43945
0.44531
0.43945
0.42969
0.42969
0.42969
0.42969
0.43945
0.44922
0.53516
0.65039
0.83984
0.90039
0.33594
-0.49414
-0.49805
-0.039063
0.31445
0.44922
0.49023
0.51563
0.52539
0.52539
0.53516
0.53906
0.54492
0.55078
0.55469
0.56445
0.57031
0.56445
0.57422
0.58398
0.5957
0.60938
0.61914
0.625
0.64063
0.66016
0.67969
0.68945
0.69922
0.70898
0.69922
0.68945
0.66406
0.64063
0.60547
0.57422
0.53906
0.51563
0.5
0.48047
0.4707
0.46094
0.45508
0.45508
0.45508
0.45508
0.45508
0.46094
0.46094
0.45508
0.45508
0.45508
0.46094
0.46094
0.46094
0.46484
0.46094
0.45508
0.45508
0.45508
0.45508
0.45508
0.44922
0.45508
0.44531
0.43945
0.44531
0.44922
0.44531
0.44922
0.44531
0.43945
0.43555
0.44531
0.44922
0.44531
0.44531
0.44531
0.44922
0.45508
0.44922
0.44531
0.43945
0.44531
0.44922
0.45508
0.45508
0.44922
0.45508
0.48047
0.50586
0.50977
0.53906
0.55078
0.5293
0.50586
0.48438
0.43945
0.42969
0.42969
0.44531
0.43555
0.42578
0.41602
0.41016
0.42578
0.42969
0.44922
0.54492
0.66406
0.85938
0.88477
0.18555
-0.49805
-0.48438
0.041016
0.3457
0.46094
0.49414
0.50586
0.50977
0.51953
0.52539
0.53516
0.53516
0.53516
0.53906
0.55078
0.55078
0.56055
0.57031
0.56445
0.57422
0.58398
0.59961
0.61914
0.64453
0.64453
0.66406
0.68555
0.69531
0.68945
0.67969
0.66406
0.65039
0.625
0.58398
0.55469
0.5293
0.5
0.48047
0.4707
0.46484
0.45508
0.44922
0.44922
0.43945
0.43945
0.44531
0.45508
0.45508
0.45508
0.44922
0.44531
0.45508
0.46094
0.45508
0.45508
0.45508
0.44531
0.43945
0.44922
0.44531
0.43945
0.43555
0.43945
0.43945
0.43945
0.42969
0.43555
0.43555
0.43945
0.44531
0.44531
0.44922
0.44922
0.43555
0.43945
0.43945
0.44531
0.44531
0.44531
0.44531
0.44922
0.44922
0.45508
0.45508
0.44531
0.45508
0.48047
0.50586
0.5
0.5293
0.56055
0.53906
0.50586
0.48047
0.45508
0.44922
0.45508
0.45508
0.43945
0.42578
0.41992
0.42969
0.43945
0.43555
0.44922
0.55078
0.67969
0.875
0.91406
0.25586
-0.49805
-0.45898
0.041016
0.33594
0.44531
0.47461
0.49414
0.50586
0.50977
0.51563
0.5293
0.53906
0.53516
0.53516
0.53906
0.54492
0.55078
0.56445
0.57422
0.58008
0.58984
0.60547
0.61914
0.62891
0.64063
0.66016
0.66992
0.68555
0.68555
0.67969
0.66992
0.64453
0.61523
0.58398
0.55469
0.53516
0.50977
0.49414
0.48047
0.46484
0.46484
0.45508
0.45508
0.44922
0.45508
0.45508
0.46484
0.46094
0.46094
0.46094
0.45508
0.45508
0.46094
0.46484
0.4707
0.46094
0.46094
0.45508
0.44922
0.44531
0.45508
0.45508
0.45508
0.44922
0.43945
0.44531
0.43945
0.44531
0.43555
0.42969
0.43555
0.43945
0.44531
0.43945
0.43945
0.43945
0.44531
0.44922
0.45508
0.44922
0.43945
0.44531
0.44922
0.45508
0.44922
0.45508
0.46484
0.49023
0.50586
0.51563
0.55078
0.55469
0.50977
0.49414
0.4707
0.43945
0.43945
0.44922
0.45508
0.42969
0.42578
0.42969
0.42969
0.42969
0.43555
0.5
0.62891
0.83398
0.93555
0.53516
-0.30469
-0.49805
-0.16016
0.25586
0.42578
0.48047
0.5
0.50586
0.51563
0.52539
0.52539
0.5293
0.53906
0.54492
0.55078
0.55078
0.55078
0.56445
0.57422
0.58398
0.58984
0.60547
0.61914
0.63477
0.65039
0.66406
0.67969
0.68945
0.69531
0.68945
0.67969
0.66016
0.64063
0.60938
0.58008
0.54492
0.51563
0.49414
0.48047
0.46484
0.46094
0.45508
0.44922
0.45508
0.46094
0.46094
0.45508
0.45508
0.45508
0.45508
0.46094
0.45508
0.46094
0.46484
0.45508
0.45508
0.45508
0.45508
0.45508
0.45508
0.45508
0.45508
0.45508
0.44922
0.44531
0.45508
0.44531
0.43555
0.44531
0.43945
0.43945
0.43945
0.44531
0.43945
0.44922
0.44531
0.43945
0.45508
0.45508
0.45508
0.45508
0.45508
0.44922
0.45508
0.45508
0.44922
0.45508
0.4707
0.49414
0.50977
0.51563
0.54492
0.57031
0.54492
0.50977
0.47461
0.44922
0.44531
0.45508
0.44922
0.43555
0.42969
0.43555
0.43945
0.43945
0.43555
0.4707
0.58008
0.72461
0.9043
0.72461
0.0058594
-0.49805
-0.39453
0.14063
0.40039
0.48438
0.50586
0.51563
0.5293
0.53516
0.54492
0.54492
0.55078
0.55078
0.55469
0.56055
0.56445
0.57031
0.58008
0.58398
0.59961
0.60938
0.61914
0.63477
0.65039
0.67578
0.68945
0.69531
0.69922
0.70898
0.69922
0.68555
0.66016
0.62891
0.58984
0.55469
0.5293
0.50586
0.49414
0.48047
0.46484
0.46484
0.45508
0.45508
0.45508
0.45508
0.45508
0.46484
0.46094
0.46094
0.4707
0.47461
0.4707
0.46484
0.46484
0.45508
0.45508
0.46094
0.46484
0.46484
0.45508
0.45508
0.45508
0.46094
0.45508
0.44531
0.44922
0.44922
0.44922
0.45508
0.45508
0.45508
0.44922
0.45508
0.44531
0.44922
0.45508
0.45508
0.44922
0.45508
0.45508
0.45508
0.45508
0.46094
0.45508
0.45508
0.44922
0.46094
0.48047
0.49414
0.50586
0.5293
0.56055
0.56445
0.51953
0.5
0.4707
0.44531
0.43945
0.44531
0.43945
0.43945
0.42969
0.42969
0.42969
0.42969
0.44922
0.50977
0.61523
0.7793
0.89453
0.53516
-0.25977
-0.49805
-0.17383
0.23438
0.42578
0.47461
0.5
0.50977
0.51953
0.52539
0.52539
0.53516
0.55078
0.55078
0.55078
0.55078
0.56055
0.57031
0.57031
0.58008
0.58398
0.59961
0.61523
0.63477
0.64453
0.66406
0.66992
0.68555
0.68945
0.68945
0.68555
0.66406
0.63477
0.60547
0.57422
0.54492
0.52539
0.50586
0.48438
0.47461
0.46094
0.45508
0.46094
0.46484
0.45508
0.45508
0.46484
0.45508
0.45508
0.46094
0.46484
0.46094
0.46094
0.46484
0.4707
0.46484
0.46094
0.45508
0.46094
0.45508
0.45508
0.45508
0.45508
0.43945
0.44531
0.44922
0.43945
0.43945
0.44531
0.43945
0.43945
0.43945
0.44922
0.44922
0.44531
0.44922
0.44922
0.45508
0.43945
0.44531
0.44922
0.45508
0.44531
0.45508
0.46094
0.45508
0.46094
0.48438
0.5
0.50586
0.52539
0.55469
0.56055
0.50977
0.5
0.46484
0.43945
0.44531
0.46094
0.45508
0.43555
0.42969
0.42969
0.43555
0.43945
0.44922
0.5293
0.63477
0.83398
0.93945
0.5293
-0.29492
-0.49805
-0.099609
0.26953
0.42969
0.48438
0.50586
0.51953
0.52539
0.52539
0.52539
0.53516
0.54492
0.54492
0.55469
0.56055
0.56445
0.57422
0.57422
0.58008
0.58984
0.59961
0.625
0.64453
0.6543
0.66406
0.67578
0.68945
0.69531
0.68945
0.67969
0.66016
0.62891
0.60547
0.57422
0.54492
0.51953
0.5
0.48438
0.48047
0.47461
0.46484
0.45508
0.46094
0.46094
0.46484
0.4707
0.4707
0.46484
0.47461
0.48047
0.48047
0.4707
0.4707
0.4707
0.4707
0.46484
0.46484
0.46484
0.45508
0.45508
0.45508
0.45508
0.45508
0.45508
0.45508
0.45508
0.44531
0.44922
0.44922
0.44531
0.44922
0.44922
0.44531
0.44531
0.44922
0.45508
0.45508
0.45508
0.45508
0.45508
0.44922
0.44531
0.44922
0.45508
0.46094
0.48047
0.49414
0.50586
0.52539
0.56055
0.55078
0.51563
0.5
0.47461
0.45508
0.45508
0.45508
0.42969
0.42969
0.42969
0.42969
0.43555
0.43945
0.44922
0.51953
0.65039
0.88477
0.95508
0.42969
-0.43945
-0.49805
-0.074219
0.29492
0.44531
0.48047
0.5
0.51953
0.52539
0.5293
0.53906
0.55078
0.54492
0.55078
0.55469
0.56055
0.56445
0.57031
0.57422
0.58398
0.5957
0.61523
0.625
0.64453
0.66016
0.67578
0.68945
0.69531
0.70508
0.70898
0.68945
0.66992
0.64453
0.60938
0.57422
0.55078
0.51953
0.5
0.48438
0.48047
0.4707
0.4707
0.46094
0.46484
0.4707
0.4707
0.4707
0.4707
0.4707
0.4707
0.4707
0.46484
0.4707
0.47461
0.4707
0.4707
0.46484
0.46484
0.4707
0.4707
0.46484
0.46094
0.4707
0.46094
0.45508
0.45508
0.45508
0.45508
0.45508
0.46094
0.45508
0.45508
0.45508
0.45508
0.45508
0.45508
0.46094
0.4707
0.47461
0.46484
0.46094
0.46094
0.46094
0.46094
0.46094
0.46484
0.46094
0.48047
0.5
0.51953
0.52539
0.54492
0.57422
0.55469
0.51953
0.5
0.46484
0.45508
0.45508
0.46094
0.45508
0.43945
0.43555
0.43945
0.43945
0.44922
0.46094
0.55469
0.69531
0.90039
0.93555
0.20117
-0.49805
-0.49805
0.050781
0.35547
0.4707
0.5
0.50977
0.52539
0.53516
0.55078
0.55078
0.55078
0.55469
0.56055
0.56055
0.57031
0.57422
0.58398
0.58984
0.5957
0.59961
0.61914
0.64063
0.6543
0.66992
0.68945
0.70508
0.70898
0.70898
0.69922
0.68945
0.66992
0.64453
0.61523
0.57422
0.54492
0.52539
0.5
0.48047
0.48047
0.4707
0.46484
0.46094
0.46484
0.4707
0.46094
0.45508
0.4707
0.48047
0.46484
0.46484
0.4707
0.46484
0.47461
0.47461
0.4707
0.46094
0.45508
0.45508
0.45508
0.46094
0.45508
0.45508
0.45508
0.44922
0.43945
0.44531
0.44922
0.44531
0.44922
0.44531
0.44922
0.45508
0.43945
0.44531
0.44922
0.44531
0.44531
0.43555
0.44531
0.44922
0.45508
0.44922
0.44922
0.44922
0.44922
0.44531
0.46484
0.48438
0.5
0.50586
0.55078
0.56445
0.51563
0.5
0.4707
0.43945
0.42969
0.43555
0.44531
0.43555
0.41992
0.42578
0.42969
0.42969
0.43945
0.48047
0.58984
0.75977
0.90039
0.61523
-0.14453
-0.49805
-0.22852
0.19531
0.4043
0.47461
0.49414
0.51563
0.52539
0.51953
0.52539
0.52539
0.54492
0.54492
0.54492
0.55078
0.55469
0.56445
0.57031
0.57422
0.58008
0.5957
0.60938
0.61914
0.64453
0.66016
0.66992
0.67578
0.68555
0.68945
0.67969
0.66406
0.64453
0.625
0.5957
0.55469
0.51563
0.49414
0.48438
0.47461
0.4707
0.46094
0.45508
0.46094
0.46484
0.46094
0.46094
0.46094
0.46094
0.46094
0.46484
0.4707
0.47461
0.48047
0.47461
0.46484
0.45508
0.46094
0.46484
0.46094
0.46484
0.45508
0.45508
0.45508
0.44531
0.44531
0.44922
0.43555
0.44531
0.44531
0.44531
0.43945
0.44531
0.44531
0.44531
0.44922
0.44531
0.43945
0.44531
0.44922
0.45508
0.44922
0.45508
0.45508
0.45508
0.45508
0.4707
0.49023
0.50586
0.50586
0.55078
0.56055
0.52539
0.50586
0.48047
0.46094
0.45508
0.45508
0.44922
0.44531
0.43555
0.42969
0.42969
0.43555
0.44531
0.49023
0.5957
0.78516
0.94922
0.68555
-0.083984
-0.49805
-0.26953
0.18945
0.41016
0.47461
0.5
0.50977
0.51953
0.53516
0.53906
0.53516
0.53906
0.54492
0.55078
0.56055
0.56445
0.57422
0.58008
0.58008
0.58984
0.60547
0.61914
0.64063
0.65039
0.66406
0.68555
0.68945
0.68945
0.69531
0.68945
0.66406
0.65039
0.61914
0.58984
0.55469
0.52539
0.50586
0.49023
0.48438
0.47461
0.45508
0.44922
0.44922
0.45508
0.44922
0.45508
0.45508
0.45508
0.46094
0.46094
0.45508
0.46484
0.4707
0.4707
0.46094
0.46094
0.45508
0.44922
0.44531
0.44922
0.44922
0.44531
0.44922
0.44922
0.44531
0.43945
0.44531
0.43945
0.43945
0.43555
0.43945
0.43945
0.43945
0.43945
0.44922
0.44531
0.44531
0.44922
0.44531
0.43945
0.43945
0.44922
0.44922
0.44922
0.44922
0.44531
0.46094
0.48047
0.50586
0.5
0.5293
0.55078
0.52539
0.49414
0.47461
0.43555
0.42969
0.42969
0.43555
0.42969
0.41992
0.41992
0.42578
0.42578
0.42969
0.45508
0.56055
0.71484
0.90039
0.72461
0.050781
-0.49805
-0.41406
0.099609
0.37109
0.46094
0.49023
0.50586
0.50977
0.51953
0.52539
0.53516
0.53906
0.54492
0.54492
0.55078
0.55078
0.55469
0.56445
0.57422
0.58398
0.59961
0.61523
0.625
0.64453
0.66406
0.67969
0.68555
0.69531
0.69531
0.68945
0.66992
0.6543
0.625
0.58984
0.55469
0.52539
0.50586
0.48047
0.47461
0.4707
0.46094
0.45508
0.44922
0.44531
0.44531
0.44531
0.44922
0.44531
0.44922
0.44922
0.44922
0.44531
0.44922
0.44922
0.45508
0.45508
0.45508
0.43945
0.43555
0.43555
0.43555
0.43555
0.43555
0.43555
0.42969
0.42969
0.42969
0.42969
0.42969
0.42969
0.42969
0.43555
0.43945
0.43555
0.43555
0.43555
0.43555
0.43555
0.43945
0.42969
0.43555
0.43945
0.43945
0.43945
0.44531
0.44531
0.45508
0.47461
0.49023
0.5
0.49414
0.54492
0.55469
0.51563
0.49414
0.46094
0.42578
0.42969
0.43945
0.43945
0.42969
0.41992
0.42578
0.41992
0.42969
0.43555
0.49023
0.58398
0.75977
0.87891
0.5293
-0.27344
-0.49805
-0.20508
0.23438
0.41992
0.47461
0.49414
0.5
0.50586
0.52539
0.52539
0.5293
0.54492
0.54492
0.55078
0.55078
0.55469
0.55469
0.57031
0.57422
0.58984
0.5957
0.60547
0.61914
0.64453
0.66406
0.67578
0.68945
0.68945
0.69922
0.68945
0.66992
0.65039
0.60938
0.57422
0.55078
0.51953
0.5
0.48047
0.46484
0.45508
0.45508
0.45508
0.45508
0.44922
0.44922
0.45508
0.44922
0.44922
0.45508
0.44922
0.45508
0.44922
0.45508
0.45508
0.45508
0.45508
0.45508
0.44922
0.44922
0.44922
0.44531
0.43945
0.43945
0.43945
0.43945
0.44531
0.43945
0.43555
0.43555
0.43555
0.42969
0.43945
0.43945
0.43555
0.43945
0.44531
0.44531
0.43945
0.43945
0.43945
0.44531
0.44922
0.44531
0.44531
0.44922
0.45508
0.4707
0.5
0.50977
0.51563
0.54492
0.55469
0.51953
0.49414
0.4707
0.43555
0.43945
0.44531
0.43945
0.42969
0.42969
0.42969
0.43555
0.43945
0.44531
0.5
0.61914
0.78906
0.9043
0.57031
-0.20508
-0.49805
-0.17383
0.23438
0.41992
0.4707
0.49414
0.50977
0.51953
0.52539
0.52539
0.5293
0.53906
0.54492
0.53906
0.55078
0.55078
0.56445
0.57031
0.57422
0.58008
0.5957
0.60938
0.61914
0.64063
0.6543
0.66406
0.67578
0.68945
0.68945
0.67969
0.66016
0.64063
0.60547
0.57031
0.53516
0.50977
0.49023
0.48047
0.46484
0.45508
0.45508
0.45508
0.46484
0.45508
0.45508
0.45508
0.45508
0.45508
0.45508
0.45508
0.45508
0.45508
0.45508
0.45508
0.45508
0.44922
0.44531
0.44922
0.44531
0.43945
0.43945
0.43945
0.43945
0.42969
0.42969
0.42969
0.43555
0.43555
0.43555
0.43555
0.43945
0.42969
0.42969
0.43555
0.43945
0.42969
0.42969
0.42969
0.43555
0.43945
0.43945
0.44531
0.43945
0.44531
0.44531
0.44531
0.44531
0.45508
0.48047
0.49414
0.5
0.53516
0.55469
0.52539
0.49414
0.4707
0.43945
0.44531
0.43945
0.43555
0.42578
0.41992
0.41602
0.41992
0.42578
0.42969
0.45508
0.56055
0.73438
0.91406
0.7207
-0.019531
-0.49805
-0.36914
0.14063
0.38086
0.46094
0.48438
0.5
0.50977
0.52539
0.51953
0.52539
0.5293
0.54492
0.54492
0.54492
0.55469
0.56055
0.56445
0.57422
0.58398
0.5957
0.60938
0.61914
0.64453
0.66016
0.67578
0.68555
0.69531
0.69531
0.68945
0.66992
0.64453
0.61523
0.58984
0.55078
0.52539
0.50586
0.49023
0.4707
0.46094
0.46094
0.45508
0.45508
0.44922
0.45508
0.44922
0.44531
0.45508
0.46094
0.45508
0.45508
0.45508
0.45508
0.45508
0.46094
0.46094
0.45508
0.44531
0.44922
0.44922
0.44922
0.44531
0.44922
0.43945
0.43945
0.43945
0.43945
0.43945
0.43945
0.44531
0.44922
0.44531
0.44922
0.44922
0.44531
0.44531
0.44922
0.45508
0.44531
0.44922
0.45508
0.44922
0.45508
0.45508
0.45508
0.45508
0.45508
0.45508
0.46094
0.48047
0.5
0.50977
0.52539
0.55469
0.56055
0.51953
0.49414
0.4707
0.43945
0.43555
0.44531
0.44922
0.43945
0.42969
0.42969
0.42969
0.43555
0.44531
0.49023
0.60547
0.78516
0.88867
0.51563
-0.30469
-0.49805
-0.17969
0.25
0.43945
0.49414
0.50977
0.52539
0.53906
0.54492
0.54492
0.55078
0.55469
0.56055
0.56445
0.56445
0.57422
0.57422
0.58398
0.5957
0.60938
0.61914
0.625
0.64063
0.6543
0.67578
0.68945
0.70508
0.71484
0.71484
0.69922
0.68555
0.66016
0.63477
0.5957
0.56055
0.52539
0.50977
0.49414
0.48047
0.4707
0.46094
0.46094
0.46484
0.46484
0.46484
0.46094
0.46484
0.46094
0.46484
0.46094
0.46484
0.4707
0.4707
0.47461
0.48047
0.4707
0.46484
0.46094
0.45508
0.46094
0.45508
0.45508
0.45508
0.46094
0.45508
0.44922
0.45508
0.44922
0.44922
0.44922
0.44922
0.45508
0.44922
0.45508
0.45508
0.45508
0.45508
0.46484
0.45508
0.45508
0.45508
0.45508
0.45508
0.46094
0.4707
0.4707
0.46094
0.46094
0.48047
0.5
0.51953
0.51563
0.53906
0.57031
0.55469
0.52539
0.50586
0.47461
0.45508
0.45508
0.45508
0.45508
0.43945
0.42969
0.43945
0.44531
0.45508
0.4707
0.55078
0.66406
0.84375
0.9043
0.36523
-0.42969
-0.49805
-0.025391
0.32031
0.46484
0.5
0.50586
0.51953
0.52539
0.53906
0.55078
0.55078
0.55078
0.55469
0.55078
0.56445
0.57422
0.57031
0.57422
0.58398
0.59961
0.61914
0.62891
0.64453
0.66016
0.66406
0.67578
0.68555
0.69922
0.69531
0.68945
0.66406
0.64063
0.60938
0.58008
0.55078
0.51953
0.5
0.48047
0.48047
0.47461
0.46094
0.46094
0.46484
0.46094
0.46094
0.46484
0.46094
0.4707
0.47461
0.47461
0.47461
0.48047
0.4707
0.46484
0.47461
0.47461
0.45508
0.45508
0.45508
0.45508
0.45508
0.45508
0.45508
0.44922
0.44922
0.44531
0.44922
0.44531
0.44922
0.44531
0.44922
0.43945
0.43555
0.43945
0.44922
0.44531
0.44922
0.44922
0.45508
0.44922
0.46094
0.45508
0.45508
0.45508
0.44922
0.44531
0.4707
0.49023
0.50586
0.5
0.53516
0.56055
0.53516
0.50977
0.48438
0.44922
0.43555
0.44922
0.45508
0.43945
0.42969
0.42578
0.42969
0.43555
0.42969
0.4707
0.59961
0.75977
0.93555
0.69531
-0.035156
-0.49805
-0.29883
0.16016
0.39063
0.46484
0.48438
0.50586
0.51563
0.52539
0.5293
0.52539
0.5293
0.53516
0.54492
0.55078
0.55469
0.56055
0.56445
0.56055
0.58008
0.5957
0.60547
0.61914
0.64453
0.6543
0.66406
0.66992
0.68555
0.68555
0.68555
0.66016
0.64063
0.60938
0.57422
0.54492
0.51953
0.5
0.48047
0.46094
0.45508
0.44922
0.44531
0.44531
0.43945
0.44922
0.44531
0.43945
0.43555
0.43555
0.44531
0.44922
0.45508
0.44922
0.43945
0.44531
0.44531
0.44531
0.43945
0.44531
0.43555
0.42969
0.42969
0.42578
0.42969
0.43555
0.42969
0.42969
0.42969
0.42969
0.42969
0.42969
0.42969
0.42969
0.43555
0.43555
0.43945
0.43945
0.44531
0.43945
0.43945
0.43945
0.44922
0.44531
0.44531
0.44531
0.44531
0.44922
0.44531
0.46484
0.49023
0.50586
0.50977
0.54492
0.55469
0.52539
0.5
0.4707
0.43555
0.44531
0.44922
0.44531
0.42969
0.42969
0.42969
0.43555
0.43555
0.43945
0.48047
0.5957
0.77539
0.91406
0.58984
-0.21875
-0.49805
-0.25977
0.2207
0.42578
0.49023
0.50586
0.51953
0.5293
0.53516
0.53906
0.55078
0.54492
0.55469
0.56445
0.57031
0.56445
0.57422
0.57422
0.58984
0.5957
0.61914
0.62891
0.64453
0.66016
0.67578
0.68945
0.69922
0.71484
0.70898
0.69922
0.68945
0.66406
0.62891
0.5957
0.56445
0.53516
0.50586
0.48438
0.47461
0.4707
0.45508
0.45508
0.45508
0.45508
0.45508
0.44922
0.45508
0.45508
0.46094
0.46484
0.46484
0.46094
0.46094
0.46094
0.46094
0.46484
0.46094
0.46094
0.45508
0.45508
0.45508
0.44922
0.45508
0.44922
0.44922
0.44922
0.44922
0.44531
0.44531
0.43945
0.44531
0.44531
0.44922
0.44922
0.44531
0.44531
0.44922
0.44922
0.44922
0.44922
0.45508
0.45508
0.45508
0.45508
0.45508
0.45508
0.44531
0.45508
0.4707
0.49023
0.50977
0.51953
0.53516
0.56445
0.55469
0.51953
0.5
0.46094
0.43945
0.44922
0.45508
0.45508
0.43945
0.43555
0.43555
0.43555
0.43945
0.44922
0.52539
0.64063
0.82422
0.88477
0.39063
-0.44336
-0.49805
-0.064453
0.31445
0.46094
0.50586
0.51953
0.5293
0.53906
0.54492
0.55078
0.55469
0.56055
0.56445
0.56055
0.57422
0.57422
0.58008
0.57422
0.58984
0.59961
0.61523
0.62891
0.64063
0.66016
0.66992
0.68945
0.69922
0.71484
0.70898
0.69531
0.67578
0.65039
0.61523
0.58008
0.54492
0.52539
0.50977
0.48438
0.48047
0.47461
0.46484
0.46484
0.45508
0.46484
0.46094
0.46094
0.46484
0.4707
0.47461
0.46484
0.47461
0.46484
0.46484
0.46484
0.47461
0.46484
0.46094
0.46484
0.46094
0.45508
0.45508
0.45508
0.45508
0.44922
0.44531
0.45508
0.44531
0.44531
0.44531
0.44922
0.44922
0.45508
0.44922
0.44531
0.44531
0.45508
0.44922
0.44922
0.44531
0.44922
0.46094
0.46094
0.44922
0.44922
0.45508
0.46094
0.45508
0.47461
0.5
0.51563
0.50586
0.55078
0.56445
0.5293
0.5
0.47461
0.45508
0.45508
0.46484
0.44922
0.43555
0.42578
0.42969
0.43945
0.43945
0.44531
0.5
0.61523
0.78906
0.92969
0.61523
-0.13867
-0.49805
-0.18945
0.21094
0.41602
0.48047
0.50586
0.51953
0.52539
0.52539
0.52539
0.53516
0.53516
0.53906
0.54492
0.55078
0.55078
0.56445
0.57422
0.57422
0.58008
0.5957
0.60938
0.625
0.64063
0.6543
0.66406
0.67969
0.68555
0.68945
0.68555
0.66406
0.64063
0.60547
0.57031
0.55078
0.53516
0.5
0.48047
0.4707
0.46094
0.46484
0.4707
0.46484
0.46094
0.46094
0.45508
0.46094
0.46094
0.47461
0.47461
0.47461
0.46094
0.45508
0.46484
0.46484
0.45508
0.46094
0.45508
0.44922
0.44922
0.45508
0.45508
0.44922
0.44531
0.44531
0.44531
0.43945
0.44922
0.43945
0.44531
0.44531
0.44531
0.44531
0.43945
0.43945
0.44531
0.44922
0.44531
0.44922
0.44531
0.44531
0.44531
0.45508
0.44922
0.45508
0.44922
0.46484
0.49023
0.5
0.50586
0.54492
0.56055
0.53906
0.50977
0.48438
0.44922
0.43945
0.44531
0.45508
0.43555
0.42969
0.42969
0.42578
0.42969
0.43945
0.4707
0.5957
0.76563
0.92969
0.67578
-0.099609
-0.49805
-0.32422
0.16016
0.40039
0.48047
0.5
0.50977
0.52539
0.52539
0.52539
0.53906
0.54492
0.55078
0.54492
0.55469
0.56055
0.57031
0.57422
0.58008
0.58398
0.59961
0.61523
0.62891
0.65039
0.66406
0.68555
0.68945
0.69922
0.69922
0.69531
0.67969
0.66016
0.62891
0.58984
0.55078
0.52539
0.50586
0.48438
0.46484
0.46094
0.45508
0.45508
0.45508
0.44922
0.44531
0.45508
0.45508
0.45508
0.45508
0.45508
0.45508
0.45508
0.45508
0.45508
0.45508
0.44922
0.46094
0.45508
0.45508
0.44922
0.44531
0.44531
0.44531
0.44922
0.44922
0.43555
0.43945
0.42969
0.43555
0.43945
0.44531
0.44922
0.43945
0.44531
0.44922
0.44922
0.44922
0.45508
0.44922
0.44922
0.44922
0.44531
0.45508
0.45508
0.45508
0.45508
0.46094
0.49023
0.50586
0.50977
0.54492
0.56055
0.53516
0.50586
0.47461
0.43945
0.42969
0.43945
0.44531
0.42969
0.42578
0.41992
0.42969
0.42969
0.42969
0.46484
0.57422
0.73438
0.88867
0.62891
-0.14453
-0.49805
-0.34375
0.16992
0.40039
0.47461
0.5
0.50977
0.51953
0.53516
0.53516
0.5293
0.53516
0.53906
0.55078
0.55078
0.55469
0.56445
0.57031
0.58398
0.5957
0.60547
0.61523
0.62891
0.64453
0.66992
0.68555
0.68945
0.68945
0.68945
0.68945
0.67969
0.66016
0.61914
0.58984
0.56055
0.5293
0.50977
0.48047
0.46484
0.45508
0.44922
0.45508
0.44531
0.44531
0.44922
0.45508
0.43945
0.43945
0.44531
0.44922
0.45508
0.46094
0.45508
0.45508
0.45508
0.44922
0.44531
0.44922
0.45508
0.44531
0.44531
0.43945
0.42969
0.43555
0.43555
0.43945
0.43945
0.43945
0.43945
0.43555
0.43945
0.43945
0.43945
0.44531
0.43945
0.43945
0.43945
0.43945
0.44531
0.43945
0.44531
0.44531
0.44922
0.44922
0.45508
0.46094
0.48047
0.50586
0.50977
0.54492
0.56055
0.5293
0.5
0.48047
0.44531
0.43555
0.44922
0.44531
0.43945
0.42969
0.42578
0.42969
0.42969
0.43945
0.46484
0.58008
0.70898
0.87891
0.67969
0.025391
-0.49805
-0.36328
0.12109
0.38086
0.4707
0.50586
0.51563
0.51953
0.52539
0.5293
0.53516
0.53516
0.54492
0.53906
0.55078
0.55078
0.57031
0.57422
0.58008
0.57422
0.58984
0.5957
0.61914
0.62891
0.6543
0.66406
0.67578
0.68945
0.69531
0.68555
0.66992
0.6543
0.625
0.58984
0.55078
0.53906
0.50977
0.49023
0.4707
0.45508
0.45508
0.46094
0.45508
0.44531
0.45508
0.46094
0.46094
0.46094
0.4707
0.46484
0.46094
0.46484
0.4707
0.46094
0.46484
0.46094
0.45508
0.45508
0.45508
0.44922
0.44531
0.45508
0.44922
0.43555
0.43945
0.44531
0.44531
0.43945
0.44922
0.44531
0.44922
0.44531
0.43945
0.44531
0.44531
0.44922
0.44531
0.44531
0.44531
0.44531
0.44531
0.44922
0.45508
0.46094
0.46484
0.48047
0.49414
0.50586
0.51563
0.54492
0.55469
0.52539
0.50586
0.47461
0.44531
0.44922
0.45508
0.44531
0.43555
0.43555
0.42969
0.42969
0.43555
0.44922
0.50586
0.60938
0.80469
0.93555
0.55469
-0.27344
-0.49805
-0.17383
0.24609
0.42578
0.48047
0.5
0.51563
0.52539
0.5293
0.53516
0.5293
0.53516
0.54492
0.55078
0.55078
0.55078
0.56055
0.56445
0.57422
0.58008
0.5957
0.60938
0.625
0.64453
0.66406
0.66992
0.68555
0.68945
0.68945
0.67578
0.66406
0.63477
0.61523
0.58398
0.54492
0.51953
0.49023
0.48047
0.4707
0.46484
0.45508
0.45508
0.45508
0.45508
0.46094
0.4707
0.47461
0.46484
0.46094
0.46094
0.46484
0.45508
0.45508
0.45508
0.46484
0.4707
0.46094
0.45508
0.45508
0.45508
0.44922
0.44531
0.44922
0.44531
0.44531
0.43945
0.44531
0.44531
0.44922
0.44531
0.43945
0.43945
0.43945
0.44531
0.44922
0.44531
0.43945
0.44531
0.44922
0.45508
0.45508
0.45508
0.44922
0.45508
0.45508
0.45508
0.4707
0.49414
0.50586
0.50977
0.53906
0.55469
0.52539
0.50586
0.48047
0.44531
0.43945
0.44531
0.45508
0.43945
0.42969
0.42969
0.42969
0.43555
0.43945
0.4707
0.58008
0.73438
0.89453
0.66406
-0.089844
-0.49805
-0.34375
0.16602
0.41016
0.48438
0.50977
0.52539
0.53516
0.53906
0.55078
0.55078
0.55078
0.55469
0.56055
0.56445
0.57422
0.57422
0.58008
0.58984
0.5957
0.60938
0.625
0.64063
0.64453
0.66406
0.68555
0.69531
0.70508
0.70508
0.69531
0.68555
0.66406
0.63477
0.5957
0.57031
0.54492
0.51953
0.5
0.48047
0.4707
0.4707
0.46094
0.45508
0.45508
0.45508
0.4707
0.46484
0.46094
0.46484
0.4707
0.4707
0.48047
0.47461
0.46094
0.45508
0.45508
0.46094
0.45508
0.44531
0.45508
0.46094
0.45508
0.44922
0.44531
0.44531
0.44922
0.44531
0.44531
0.43945
0.43555
0.44531
0.45508
0.45508
0.45508
0.44922
0.43945
0.45508
0.44922
0.45508
0.44922
0.45508
0.44531
0.45508
0.45508
0.45508
0.45508
0.45508
0.47461
0.5
0.51563
0.51953
0.55469
0.56445
0.54492
0.51953
0.48438
0.43945
0.43945
0.44922
0.45508
0.42969
0.42969
0.42969
0.42969
0.43555
0.44531
0.47461
0.58398
0.73438
0.88477
0.64063
-0.099609
-0.49805
-0.32422
0.16602
0.40039
0.47461
0.5
0.51563
0.52539
0.53906
0.53906
0.53906
0.53906
0.55078
0.55078
0.55078
0.56055
0.57031
0.57422
0.58398
0.5957
0.5957
0.61523
0.62891
0.64063
0.66016
0.67578
0.69531
0.68945
0.69531
0.69922
0.68555
0.6543
0.62891
0.5957
0.56445
0.5293
0.50586
0.49414
0.48438
0.4707
0.4707
0.46484
0.46094
0.45508
0.45508
0.46094
0.46094
0.46484
0.46094
0.46484
0.4707
0.4707
0.47461
0.4707
0.4707
0.46094
0.46094
0.46484
0.4707
0.45508
0.45508
0.44922
0.45508
0.45508
0.44922
0.44531
0.45508
0.44531
0.44531
0.44922
0.45508
0.44922
0.43945
0.43555
0.44531
0.45508
0.44922
0.44922
0.44531
0.45508
0.45508
0.45508
0.44922
0.45508
0.45508
0.45508
0.47461
0.5
0.50586
0.5
0.54492
0.56055
0.52539
0.50586
0.4707
0.44922
0.44922
0.45508
0.44922
0.45508
0.42969
0.42969
0.43555
0.43945
0.44922
0.51563
0.61523
0.79883
0.92383
0.58008
-0.22461
-0.49805
-0.16406
0.24023
0.41992
0.4707
0.49023
0.5
0.51953
0.5293
0.53516
0.53516
0.53906
0.54492
0.53906
0.55078
0.56055
0.56055
0.57031
0.57422
0.58984
0.60547
0.61914
0.625
0.63477
0.6543
0.66406
0.67578
0.68945
0.69531
0.68555
0.66406
0.64063
0.61523
0.58398
0.55078
0.52539
0.50586
0.48438
0.47461
0.4707
0.46094
0.4707
0.47461
0.46094
0.46094
0.45508
0.46484
0.46094
0.47461
0.4707
0.46484
0.4707
0.4707
0.4707
0.46484
0.46484
0.4707
0.4707
0.46484
0.46094
0.45508
0.45508
0.44531
0.44922
0.45508
0.45508
0.45508
0.46094
0.46094
0.45508
0.45508
0.45508
0.46094
0.46094
0.46094
0.46094
0.46094
0.46484
0.46094
0.46094
0.46094
0.46094
0.4707
0.4707
0.4707
0.48047
0.50586
0.51563
0.50977
0.55078
0.57422
0.54492
0.51953
0.49023
0.46094
0.45508
0.46484
0.45508
0.44531
0.43555
0.43555
0.43945
0.44531
0.45508
0.49023
0.60938
0.79883
0.96875
0.68945
-0.070313
-0.49805
-0.26367
0.18555
0.41016
0.48438
0.50586
0.52539
0.5293
0.5293
0.53516
0.54492
0.53906
0.54492
0.55078
0.56055
0.56445
0.57422
0.58398
0.5957
0.59961
0.61523
0.61914
0.64453
0.66406
0.67969
0.68945
0.68945
0.69531
0.69922
0.69531
0.67578
0.65039
0.625
0.58984
0.56055
0.5293
0.50977
0.49023
0.48047
0.47461
0.4707
0.46484
0.46094
0.46484
0.46484
0.4707
0.46094
0.46094
0.46094
0.46484
0.4707
0.47461
0.4707
0.4707
0.46094
0.4707
0.47461
0.46094
0.46094
0.45508
0.44922
0.45508
0.45508
0.48047
0.4707
0.44531
0.43555
0.43945
0.44531
0.43945
0.44531
0.44922
0.45508
0.45508
0.46484
0.45508
0.45508
0.45508
0.44922
0.44531
0.44922
0.45508
0.46094
0.46094
0.48047
0.5
0.51953
0.54492
0.58398
0.59961
0.5293
0.50977
0.49414
0.44922
0.46484
0.48438
0.4707
0.50586
0.48047
0.5
0.50586
0.39453
0.43555
0.4707
0.55078
0.73438
0.99023
0.99414
0.03125
-0.49805
-0.34961
0.070313
0.34961
0.45508
0.49414
0.61523
0.68945
0.6543
0.62891
0.46484
0.40039
0.50977
0.5293
0.56055
0.66406
0.75391
0.93555
0.5957
0.51563
0.63477
0.50977
0.5
0.59961
0.66016
0.78906
0.81055
0.66016
0.85547
0.85938
0.57422
0.60938
0.75391
0.58008
0.49414
0.50977
0.68945
0.50586
0.4043
0.43555
0.46094
0.46484
0.45508
0.46484
0.47461
0.47461
0.55078
0.58398
0.49414
0.57031
0.51563
0.44531
0.38477
0.38086
0.42578
0.44531
0.45508
0.45508
0.45508
0.44531
0.43555
0.43555
0.42969
0.43555
0.42969
0.42578
0.51563
0.57031
0.44531
0.32422
0.33984
0.375
0.39453
0.41016
0.41602
0.41992
0.41602
0.41992
0.42578
0.44531
0.46094
0.48047
0.48047
0.51953
0.5293
0.5
0.49023
0.44922
0.41992
0.50977
0.41016
0.36523
0.38086
0.38086
0.38477
0.39063
0.40039
0.4043
0.46484
0.56445
0.75
0.86523
0.48047
-0.33008
-0.49805
-0.20898
0.20117
0.39453
0.44922
0.46484
0.48047
0.48438
0.49414
0.50586
0.50586
0.50977
0.51953
0.52539
0.52539
