0.66992
0.62012
0.60498
0.58496
0.56494
0.58008
0.56006
0.5752
0.56006
0.54492
0.52979
0.54492
0.56006
0.5752
0.53516
0.54492
0.55518
0.5
0.4751
0.47998
0.47021
0.47998
0.45996
0.47021
0.45508
0.48486
0.46484
0.41504
0.41992
0.44482
0.46484
0.44482
0.45996
0.4751
0.49023
0.50977
0.52002
0.53516
0.54492
0.56494
0.58008
0.55518
0.5498
0.56006
0.53516
0.52002
0.53516
0.54004
0.54004
0.54004
0.54004
0.5249
0.53516
0.5498
0.53516
0.5249
0.5498
0.56006
0.5752
0.56494
0.53516
0.52002
0.50488
0.52002
0.52979
0.5
0.49512
0.52979
0.53516
0.52002
0.53516
0.5498
0.53516
0.5249
0.5498
0.56494
0.56006
0.625
0.68994
0.70508
0.52979
0.125
-0.25488
-0.31982
-0.040039
0.29004
0.58008
0.69482
0.66992
0.62012
0.58984
0.59521
0.58008
0.58008
0.5498
0.54492
0.56006
0.58008
0.50977
0.5
0.52002
0.54004
0.53516
0.54004
0.51514
0.50977
0.52979
0.47021
0.48486
0.50488
0.4248
0.43506
0.41992
0.43018
0.4502
0.45508
0.43018
0.45508
0.45508
0.47021
0.47998
0.51514
0.53516
0.51514
0.50977
0.5249
0.52002
0.51514
0.52002
0.51514
0.50977
0.49023
0.4751
0.51514
0.52002
0.50977
0.53516
0.56494
0.54492
0.55518
0.56982
0.58008
0.54492
0.52002
0.49512
0.48486
0.4751
0.47998
0.49023
0.49512
0.5249
0.54004
0.52979
0.56494
0.5498
0.54004
0.56982
0.58496
0.58984
0.5498
0.5249
0.52002
0.48486
0.46484
0.47021
0.47998
0.5
0.50977
0.49512
0.51514
0.54004
0.52979
0.54004
0.52002
0.52002
0.49512
0.50977
0.5
0.47998
0.49512
0.5
0.49023
0.47998
0.5249
0.50488
0.5249
0.54004
0.60986
0.68018
0.63477
0.54004
0.20996
-0.21973
-0.30469
-0.1748
0.13525
0.45508
0.625
0.60498
0.58984
0.59521
0.60986
0.59521
0.61475
0.62012
0.58496
0.5498
0.55518
0.53516
0.54004
0.4751
0.47021
0.5
0.50488
0.49023
0.49512
0.51514
0.52002
0.52002
0.52002
0.48486
0.47021
0.43994
0.41504
0.375
0.35986
0.35986
0.37988
0.3999
0.40479
0.43506
0.44482
0.4751
0.50977
0.53516
0.55518
0.58008
0.56982
0.56494
0.53516
0.54004
0.51514
0.5249
0.52979
0.49023
0.48486
0.52002
0.54004
0.55518
0.53516
0.52979
0.52002
0.5498
0.54492
0.56494
0.5498
0.53516
0.5498
0.55518
0.56006
0.54492
0.53516
0.52002
0.52002
0.52002
0.50488
0.50488
0.50977
0.52002
0.5249
0.54004
0.56494
0.56494
0.56494
0.54004
0.55518
0.52002
0.5
0.5249
0.53516
0.52002
0.52979
0.51514
0.54004
0.49023
0.49512
0.50977
0.50488
0.5249
0.49512
0.49512
0.5249
0.50488
0.49023
0.52002
0.52002
0.53516
0.54004
0.52979
0.54004
0.52002
0.55518
0.56982
0.56494
0.5498
0.51514
0.4751
0.47021
0.4751
0.4502
0.45996
0.46484
0.45996
0.49512
0.5498
0.62988
0.64502
0.56494
0.20996
-0.19482
-0.27002
-0.11475
0.18506
0.50977
0.65479
0.60498
0.56006
0.54492
0.52979
0.52979
0.56982
0.5752
0.58984
0.6001
0.58984
0.60986
0.61475
0.58496
0.56494
0.55518
0.53516
0.52002
0.51514
0.49023
0.4502
0.4248
0.43506
0.43994
0.43018
0.47021
0.47998
0.47021
0.46484
0.48486
0.49512
0.47021
0.49023
0.48486
0.46484
0.46484
0.49023
0.50488
0.51514
0.48486
0.5
0.50977
0.52979
0.54004
0.55518
0.58008
0.5249
0.50977
0.50488
0.52002
0.52002
0.5
0.50488
0.52002
0.49512
0.49512
0.50977
0.51514
0.54004
0.56982
0.58984
0.58008
0.58496
0.55518
0.54492
0.56006
0.50977
0.49512
0.5
0.50977
0.5
0.52002
0.49512
0.58008
0.65479
0.6748
0.62012
0.37012
-0.11475
-0.29492
-0.14502
0.14502
0.46484
0.68018
0.7251
0.66504
0.61475
0.56982
0.56494
0.5752
0.58496
0.5752
0.58496
0.55518
0.56006
0.58008
0.58496
0.52979
0.50488
0.49512
0.49512
0.49512
0.5249
0.52002
0.48486
0.48486
0.46484
0.44482
0.4248
0.41016
0.43994
0.4502
0.44482
0.44482
0.41992
0.41016
0.44482
0.43994
0.47021
0.5
0.49512
0.5249
0.54004
0.52979
0.52002
0.54004
0.54004
0.53516
0.5249
0.49512
0.48486
0.49023
0.48486
0.5
0.49023
0.51514
0.52979
0.54004
0.52002
0.51514
0.54004
0.55518
0.5249
0.56006
0.58008
0.55518
0.5249
0.50977
0.49512
0.51514
0.5
0.49512
0.5249
0.54492
0.54492
0.54004
0.5498
0.54004
0.55518
0.54492
0.56006
0.51514
0.53516
0.52002
0.49023
0.50488
0.47998
0.5
0.50488
0.47998
0.51514
0.52002
0.50488
0.52002
0.53516
0.54492
0.52002
0.56006
0.54004
0.55518
0.56006
0.53516
0.50488
0.49023
0.45508
0.44482
0.44482
0.4751
0.47021
0.5
0.50977
0.4751
0.49023
0.49512
0.49023
0.52002
0.52002
0.54004
0.56494
0.58008
0.56494
0.625
0.64014
0.44482
0.060059
-0.31982
-0.375
-0.125
0.21484
0.5498
0.63477
0.60498
0.60498
0.62988
0.60986
0.58984
0.6001
0.60986
0.59521
0.56494
0.50977
0.49512
0.52002
0.53516
0.54004
0.5498
0.54004
0.5498
0.56006
0.50488
0.49512
0.5
0.49512
0.45508
0.47021
0.46484
0.4502
0.40479
0.37012
0.3501
0.3501
0.39014
0.3999
0.4248
0.44482
0.45996
0.47021
0.5
0.52979
0.53516
0.56006
0.56982
0.58984
0.5752
0.58984
0.59521
0.58984
0.58496
0.5752
0.58984
0.62012
0.59521
0.56006
0.52002
0.47998
0.49023
0.47998
0.48486
0.50977
0.54004
0.5249
0.52979
0.52979
0.54004
0.54004
0.5249
0.56006
0.56494
0.5498
0.56006
0.56982
0.58008
0.60498
0.65479
0.66992
0.64014
0.4751
0.040039
-0.2998
-0.33496
-0.044922
0.33008
0.66992
0.73486
0.68018
0.66016
0.66016
0.64502
0.63477
0.64502
0.66016
0.58496
0.52002
0.48486
0.48486
0.50488
0.51514
0.50488
0.51514
0.54004
0.5498
0.52002
0.5498
0.51514
0.5
0.52979
0.5249
0.53516
0.51514
0.52979
0.4502
0.40479
0.39502
0.4248
0.44482
0.45508
0.43506
0.47021
0.52979
0.53516
0.52002
0.56982
0.56006
0.55518
0.56982
0.58008
0.6001
0.55518
0.51514
0.48486
0.47021
0.46484
0.4502
0.4751
0.5
0.47998
0.50977
0.53516
0.54492
0.55518
0.5498
0.56006
0.5498
0.56494
0.58984
0.58984
0.62012
0.58008
0.52002
0.5
0.47998
0.45996
0.4751
0.4751
0.49023
0.50488
0.52002
0.54004
0.5249
0.54492
0.54004
0.5249
0.6499
0.70996
0.68018
0.5249
0.090332
-0.21973
-0.25488
0.015137
0.30029
0.54492
0.62012
0.6001
0.56494
0.56006
0.56494
0.56006
0.56982
0.58984
0.54492
0.56494
0.5752
0.58984
0.58496
0.5752
0.58496
0.5752
0.5498
0.5249
0.5249
0.53516
0.55518
0.52002
0.48486
0.41016
0.34521
0.3252
0.37012
0.375
0.39502
0.39502
0.41992
0.44482
0.45996
0.47998
0.43506
0.48486
0.51514
0.54492
0.53516
0.56006
0.56494
0.5498
0.54004
0.56006
0.56494
0.60498
0.64502
0.58496
0.52979
0.43994
0.45508
0.44482
0.43994
0.47998
0.45508
0.4751
0.50977
0.51514
0.52002
0.54004
0.52979
0.53516
0.56006
0.5498
0.56494
0.58008
0.5498
0.54004
0.49512
0.47021
0.45508
0.47021
0.46484
0.49512
0.52979
0.625
0.68994
0.71484
0.53516
0.055176
-0.27002
-0.28467
0.0048828
0.37988
0.6748
0.71484
0.64502
0.60498
0.58984
0.56006
0.5
0.49512
0.49512
0.52002
0.54004
0.56494
0.56982
0.58008
0.56006
0.55518
0.58496
0.54004
0.53516
0.5249
0.50977
0.5
0.47998
0.48486
0.45996
0.4502
0.44482
0.4248
0.3999
0.40479
0.4248
0.44482
0.4502
0.44482
0.4751
0.48486
0.50488
0.52002
0.49512
0.50977
0.5249
0.54004
0.5498
0.52002
0.53516
0.52979
0.54004
0.54492
0.52002
0.51514
0.48486
0.50977
0.49512
0.49512
0.51514
0.5249
0.50488
0.54004
0.56006
0.56006
0.56494
0.53516
0.54492
0.55518
0.5498
0.5498
0.54004
0.51514
0.50488
0.53516
0.49023
0.50977
0.50488
0.52002
0.51514
0.52979
0.5498
0.55518
0.56494
0.55518
0.56982
0.56494
0.58984
0.55518
0.54492
0.5498
0.53516
0.52979
0.51514
0.49023
0.47998
0.5
0.58496
0.68018
0.64014
0.49512
0.095215
-0.25977
-0.32471
-0.054688
0.25488
0.56006
0.7002
0.64014
0.62012
0.58984
0.58008
0.60986
0.56494
0.58984
0.58984
0.58496
0.55518
0.56494
0.5498
0.54004
0.56006
0.54004
0.5249
0.52002
0.54004
0.52002
0.50488
0.49512
0.48486
0.50488
0.47021
0.47021
0.46484
0.45996
0.49512
0.49023
0.5
0.47998
0.44482
0.4502
0.47021
0.47998
0.47021
0.49023
0.50488
0.52002
0.50977
0.51514
0.53516
0.56006
0.54492
0.56494
0.53516
0.54004
0.54004
0.54004
0.51514
0.50977
0.51514
0.49512
0.52002
0.54004
0.53516
0.56006
0.54004
0.5498
0.56006
0.56982
0.58008
0.56494
0.56494
0.58496
0.56006
0.5498
0.54004
0.51514
0.52979
0.54004
0.50977
0.4751
0.56494
0.64014
0.65479
0.50977
0.125
-0.27979
-0.32959
-0.054688
0.29492
0.59521
0.68506
0.64014
0.60986
0.60986
0.59521
0.58984
0.61475
0.62012
0.5752
0.52002
0.47021
0.47021
0.49023
0.50488
0.52979
0.52979
0.52979
0.53516
0.51514
0.49512
0.50488
0.52002
0.48486
0.49512
0.47021
0.46484
0.4751
0.46484
0.50977
0.52002
0.49023
0.46484
0.41016
0.44482
0.43994
0.43506
0.47998
0.49512
0.46484
0.45996
0.47998
0.49512
0.50977
0.49512
0.52979
0.52002
0.53516
0.54004
0.54004
0.5752
0.58984
0.54492
0.49512
0.47021
0.49512
0.48486
0.49512
0.49023
0.52979
0.53516
0.51514
0.53516
0.5498
0.56982
0.58008
0.56006
0.58984
0.58984
0.56982
0.58984
0.59521
0.50977
0.44482
0.41016
0.44482
0.46484
0.4751
0.47021
0.5
0.51514
0.50977
0.54492
0.53516
0.56006
0.52979
0.54004
0.54492
0.54004
0.5498
0.54492
0.58496
0.54004
0.4751
0.4248
0.43994
0.43018
0.46484
0.4751
0.48486
0.50488
0.54004
0.64502
0.68506
0.62988
0.43018
-0.0097656
-0.25488
-0.25977
0.084961
0.41992
0.61475
0.62988
0.5249
0.47021
0.50488
0.54004
0.5498
0.56006
0.58496
0.56494
0.58984
0.56982
0.56494
0.58496
0.56006
0.55518
0.58496
0.58496
0.55518
0.48486
0.43506
0.3999
0.40479
0.4248
0.43018
0.41016
0.40479
0.4248
0.43018
0.41016
0.43018
0.46484
0.49023
0.48486
0.5
0.54004
0.51514
0.45996
0.4248
0.43506
0.47998
0.49512
0.49023
0.53516
0.5
0.51514
0.52002
0.5249
0.54492
0.53516
0.56982
0.5752
0.6001
0.59521
0.58008
0.5249
0.5
0.50977
0.49512
0.50488
0.5
0.5249
0.52002
0.54004
0.56494
0.55518
0.53516
0.54004
0.56494
0.58008
0.58984
0.58496
0.54004
0.50977
0.49512
0.4751
0.47021
0.51514
0.50977
0.49512
0.49512
0.52002
0.54492
0.58984
0.6499
0.69482
0.64502
0.39502
-0.084961
-0.27979
-0.15479
0.12988
0.41016
0.6001
0.62012
0.56982
0.54004
0.53516
0.54492
0.56982
0.59521
0.60986
0.61475
0.62988
0.625
0.64502
0.60986
0.56982
0.54492
0.52002
0.48486
0.47021
0.46484
0.46484
0.4751
0.4248
0.44482
0.47021
0.45996
0.46484
0.47021
0.47998
0.48486
0.52002
0.54004
0.54492
0.4751
0.47998
0.45996
0.4502
0.4751
0.49023
0.48486
0.49512
0.51514
0.52002
0.5249
0.5249
0.54004
0.52979
0.56982
0.56494
0.5752
0.60986
0.625
0.58008
0.52002
0.47998
0.45508
0.4751
0.5
0.48486
0.52002
0.5249
0.49512
0.50977
0.54004
0.5498
0.56494
0.55518
0.56982
0.56494
0.5498
0.53516
0.51514
0.52002
0.53516
0.54004
0.4751
0.47021
0.54492
0.625
0.66016
0.62012
0.33008
-0.13965
-0.2998
-0.125
0.14502
0.52002
0.7251
0.73486
0.63477
0.58008
0.5498
0.54004
0.54492
0.52979
0.49512
0.51514
0.54004
0.55518
0.54004
0.56494
0.5752
0.6001
0.58984
0.58008
0.56006
0.52979
0.51514
0.50977
0.49512
0.50488
0.52002
0.45508
0.37012
0.35986
0.375
0.39014
0.39502
0.39014
0.43506
0.45996
0.47998
0.5
0.49512
0.52002
0.52979
0.5249
0.54004
0.52979
0.5498
0.55518
0.5498
0.56494
0.5498
0.54492
0.52002
0.54004
0.5249
0.54004
0.51514
0.50488
0.49512
0.52002
0.51514
0.50977
0.52979
0.54004
0.52979
0.52979
0.54004
0.53516
0.55518
0.56494
0.56006
0.58984
0.54492
0.50977
0.48486
0.4751
0.49512
0.51514
0.53516
0.625
0.66016
0.61475
0.3501
-0.11475
-0.30957
-0.16992
0.14014
0.5
0.71484
0.75
0.63477
0.62012
0.625
0.59521
0.56494
0.53516
0.5249
0.5
0.54004
0.52002
0.5249
0.54492
0.53516
0.54492
0.51514
0.5249
0.52002
0.52979
0.50977
0.48486
0.4751
0.49023
0.45508
0.4502
0.47021
0.46484
0.41504
0.37988
0.3501
0.375
0.43018
0.44482
0.46484
0.48486
0.51514
0.51514
0.50977
0.52979
0.54004
0.54004
0.5498
0.53516
0.54004
0.52002
0.52979
0.54492
0.56494
0.58008
0.56494
0.54004
0.49512
0.44482
0.4751
0.51514
0.52002
0.51514
0.52979
0.52002
0.5249
0.50488
0.5249
0.52979
0.56494
0.66016
0.70996
0.69482
0.46484
-0.029785
-0.29004
-0.29492
0.055176
0.39014
0.64014
0.66992
0.625
0.58496
0.5752
0.58008
0.5498
0.56494
0.56494
0.5752
0.5498
0.54004
0.6001
0.58984
0.59521
0.58984
0.58984
0.58984
0.59521
0.56494
0.5498
0.56006
0.50977
0.43994
0.39502
0.39502
0.40479
0.375
0.36523
0.3999
0.41992
0.44482
0.47021
0.47998
0.49023
0.50977
0.54492
0.5498
0.54492
0.58984
0.59521
0.58496
0.56494
0.58008
0.56494
0.58496
0.58984
0.56006
0.56494
0.56006
0.56006
0.55518
0.58984
0.56006
0.59521
0.60498
0.62988
0.6001
0.50977
0.46484
0.45508
0.4502
0.49512
0.47021
0.4751
0.51514
0.52002
0.51514
0.53516
0.52002
0.52979
0.55518
0.56982
0.52002
0.51514
0.54004
0.53516
0.54004
0.52979
0.5752
0.58496
0.56006
0.52002
0.51514
0.64014
0.6499
0.5
0.14014
-0.25488
-0.33496
-0.11963
0.22021
0.54492
0.70996
0.68994
0.63477
0.60986
0.60498
0.59521
0.58984
0.625
0.65479
0.64502
0.6001
0.52979
0.47021
0.49023
0.49512
0.50977
0.51514
0.50977
0.49023
0.45508
0.46484
0.45996
0.43506
0.44482
0.4502
0.44482
0.45996
0.44482
0.45996
0.45996
0.48486
0.47021
0.50488
0.52002
0.56006
0.58984
0.54004
0.47021
0.4248
0.4502
0.44482
0.44482
0.45508
0.49512
0.49023
0.5
0.50977
0.51514
0.53516
0.5498
0.54004
0.53516
0.5498
0.56982
0.58496
0.58496
0.55518
0.51514
0.50488
0.47998
0.49512
0.49023
0.50977
0.52979
0.53516
0.5249
0.54004
0.55518
0.54492
0.52979
0.56006
0.56982
0.55518
0.68506
0.75977
0.71973
0.39014
-0.13965
-0.3999
-0.25488
0.064941
0.40479
0.65479
0.69482
0.62012
0.6001
0.56982
0.56006
0.56494
0.5498
0.56982
0.58496
0.6001
0.63477
0.60986
0.56982
0.54492
0.52002
0.50488
0.48486
0.47021
0.47021
0.47021
0.45508
0.47021
0.4751
0.43506
0.4248
0.4751
0.47998
0.49023
0.48486
0.49023
0.45508
0.44482
0.4502
0.43994
0.47021
0.45996
0.4751
0.47021
0.50488
0.51514
0.52002
0.54004
0.5498
0.56494
0.56494
0.58496
0.60498
0.52979
0.49023
0.49512
0.47998
0.52979
0.51514
0.50977
0.50488
0.52979
0.52002
0.56006
0.5752
0.54004
0.56494
0.56982
0.5752
0.58008
0.5249
0.47998
0.4751
0.47021
0.47998
0.49023
0.49512
0.47998
0.50977
0.53516
0.5498
0.56494
0.56494
0.55518
0.5498
0.5498
0.55518
0.54492
0.5249
0.50488
0.47998
0.4751
0.47021
0.48486
0.49512
0.4751
0.5
0.52979
0.58984
0.66992
0.68018
0.52002
0.14502
-0.22461
-0.26465
-0.10498
0.20996
0.5249
0.62988
0.60986
0.5752
0.56982
0.6001
0.60986
0.58984
0.59521
0.61475
0.60986
0.61475
0.58984
0.58984
0.56982
0.54004
0.53516
0.52002
0.47998
0.47021
0.47021
0.45996
0.49023
0.46484
0.45508
0.4751
0.46484
0.43018
0.41504
0.41016
0.4502
0.43506
0.45508
0.43994
0.4502
0.45996
0.4751
0.5
0.51514
0.5249
0.52002
0.55518
0.56982
0.5752
0.54492
0.50488
0.51514
0.5249
0.52002
0.51514
0.50977
0.52979
0.54004
0.5498
0.54004
0.5752
0.58984
0.52979
0.54004
0.53516
0.56494
0.56006
0.54492
0.55518
0.5498
0.55518
0.52002
0.50488
0.54004
0.5752
0.62012
0.68018
0.70508
0.60986
0.26514
-0.23486
-0.33984
-0.10498
0.29492
0.60498
0.7251
0.72998
0.66016
0.64014
0.58984
0.60498
0.58008
0.58496
0.60986
0.58984
0.56006
0.55518
0.56006
0.51514
0.5
0.52002
0.5249
0.51514
0.5
0.49023
0.5
0.50488
0.4751
0.49023
0.47021
0.45996
0.44482
0.43506
0.44482
0.43994
0.4502
0.4751
0.49023
0.5
0.53516
0.52979
0.54492
0.56006
0.54492
0.56006
0.54004
0.49512
0.50488
0.4502
0.43994
0.46484
0.47021
0.49512
0.5
0.52002
0.55518
0.5498
0.56982
0.5752
0.56494
0.55518
0.54004
0.5249
0.52002
0.50977
0.49023
0.47998
0.51514
0.51514
0.52002
0.53516
0.52979
0.56006
0.56494
0.55518
0.56494
0.5498
0.54492
0.53516
0.52002
0.50488
0.48486
0.49512
0.47021
0.49512
0.50977
0.49512
0.50977
0.5249
0.56006
0.6001
0.69482
0.65479
0.52002
0.16016
-0.22998
-0.2998
-0.10986
0.23486
0.55518
0.66016
0.66016
0.59521
0.58496
0.60498
0.56494
0.56982
0.5752
0.56494
0.56494
0.59521
0.58008
0.58496
0.56494
0.56494
0.5249
0.53516
0.52002
0.48486
0.47021
0.46484
0.4502
0.44482
0.44482
0.43018
0.44482
0.46484
0.4502
0.43994
0.44482
0.43018
0.4248
0.43506
0.46484
0.47021
0.44482
0.47021
0.5
0.50977
0.50977
0.52002
0.54004
0.5249
0.54492
0.5498
0.52002
0.54492
0.52979
0.52002
0.52979
0.52002
0.5249
0.50488
0.52002
0.53516
0.54004
0.53516
0.52979
0.54004
0.54492
0.5752
0.56494
0.5752
0.58984
0.58496
0.5752
0.5249
0.49512
0.4751
0.51514
0.6001
0.65479
0.66016
0.45508
-0.02002
-0.31494
-0.20459
0.060059
0.43994
0.71973
0.75488
0.68506
0.66016
0.62012
0.5752
0.56006
0.54004
0.54004
0.51514
0.50488
0.53516
0.5498
0.55518
0.54492
0.58008
0.58984
0.56494
0.54492
0.52979
0.53516
0.52002
0.50488
0.52002
0.47021
0.39014
0.35498
0.37012
0.39014
0.39502
0.3999
0.41504
0.43994
0.45996
0.49023
0.52002
0.5249
0.52002
0.52979
0.5249
0.53516
0.52979
0.52979
0.50488
0.49512
0.51514
0.50977
0.49512
0.52002
0.52979
0.53516
0.5498
0.5752
0.59521
0.58984
0.59521
0.58008
0.58008
0.56006
0.54492
0.5
0.48486
0.46484
0.47021
0.48486
0.52002
0.52979
0.58008
0.66016
0.6748
0.68506
0.2002
-0.25977
-0.33984
-0.099609
0.24023
0.56494
0.73975
0.7002
0.64014
0.60498
0.56982
0.56006
0.5498
0.56494
0.55518
0.54492
0.56494
0.56494
0.58984
0.58496
0.58008
0.56006
0.5498
0.54004
0.53516
0.55518
0.54004
0.51514
0.47998
0.45996
0.46484
0.47998
0.47021
0.46484
0.47998
0.4751
0.48486
0.4751
0.5
0.47998
0.49023
0.50488
0.49512
0.53516
0.54004
0.53516
0.52979
0.52002
0.5249
0.54004
0.55518
0.54492
0.56494
0.56006
0.53516
0.5249
0.50977
0.5249
0.52002
0.54004
0.53516
0.5498
0.54004
0.5498
0.55518
0.53516
0.54004
0.51514
0.5249
0.54004
0.5
0.51514
0.51514
0.52002
0.5
0.49512
0.53516
0.5498
0.56982
0.56494
0.56006
0.5752
0.5498
0.54004
0.52002
0.5
0.51514
0.50977
0.52002
0.51514
0.59521
0.68994
0.64502
0.55518
0.2251
-0.18506
-0.23975
-0.049805
0.2749
0.56494
0.68506
0.64502
0.58984
0.59521
0.52979
0.54004
0.52979
0.53516
0.54004
0.55518
0.56006
0.56494
0.56494
0.56006
0.55518
0.56982
0.58984
0.5249
0.5249
0.50977
0.47021
0.48486
0.49512
0.44482
0.43018
0.41016
0.3999
0.40479
0.4248
0.41016
0.4248
0.4502
0.45508
0.47021
0.47021
0.49512
0.49512
0.50977
0.5
0.51514
0.49512
0.50977
0.52002
0.50977
0.51514
0.49512
0.53516
0.54004
0.54492
0.52002
0.52979
0.50977
0.5
0.52979
0.53516
0.5498
0.52979
0.5249
0.56982
0.5752
0.54004
0.56006
0.54004
0.52979
0.52002
0.50977
0.51514
0.5
0.48486
0.47998
0.49512
0.50488
0.51514
0.54004
0.56006
0.56494
0.54004
0.53516
0.56494
0.62988
0.65479
0.62988
0.45996
-0.049805
-0.32959
-0.23975
0.0048828
0.36523
0.61475
0.6748
0.625
0.58984
0.60498
0.59521
0.60986
0.58984
0.58984
0.56982
0.54004
0.5498
0.56006
0.56494
0.53516
0.53516
0.52002
0.53516
0.50977
0.51514
0.48486
0.47021
0.47021
0.48486
0.43018
0.44482
0.4248
0.41992
0.4502
0.47998
0.43506
0.43018
0.44482
0.45508
0.47021
0.49512
0.50488
0.49023
0.5249
0.54004
0.52979
0.52002
0.54492
0.5498
0.55518
0.5249
0.54004
0.5752
0.55518
0.52979
0.54004
0.52979
0.53516
0.51514
0.5249
0.52002
0.53516
0.52979
0.52002
0.52002
0.52979
0.52002
0.54004
0.54004
0.58984
0.56494
0.54004
0.52979
0.50977
0.50977
0.51514
0.54004
0.50488
0.52002
0.55518
0.56006
0.52002
0.50977
0.52002
0.53516
0.54492
0.5498
0.54004
0.54492
0.56006
0.625
0.6499
0.55518
0.25488
-0.1748
-0.29492
-0.10498
0.20996
0.5
0.66016
0.63477
0.59521
0.58984
0.56006
0.52979
0.52002
0.53516
0.5249
0.56006
0.54492
0.58984
0.58984
0.58984
0.5752
0.58984
0.62012
0.5752
0.53516
0.47021
0.44482
0.43506
0.43994
0.40479
0.3999
0.39502
0.41016
0.40479
0.45996
0.47998
0.5
0.5249
0.54004
0.54004
0.5249
0.50977
0.47021
0.4751
0.45996
0.4751
0.49023
0.5
0.51514
0.52979
0.54004
0.5498
0.56494
0.58984
0.61475
0.58984
0.56982
0.52979
0.49512
0.50488
0.51514
0.50488
0.52979
0.53516
0.54004
0.54492
0.54004
0.55518
0.56006
0.54004
0.56006
0.5498
0.56982
0.54492
0.5
0.50488
0.4751
0.5
0.52002
0.53516
0.5498
0.52002
0.54004
0.53516
0.54004
0.56982
0.54492
0.54004
0.5498
0.5752
0.6499
0.6748
0.56982
0.41016
0
-0.29004
-0.2998
-0.0048828
0.34521
0.60986
0.68018
0.62012
0.59521
0.58984
0.60986
0.62012
0.60498
0.56982
0.53516
0.5
0.49512
0.52002
0.52979
0.53516
0.52002
0.54004
0.55518
0.52979
0.53516
0.50977
0.50977
0.52002
0.5
0.49512
0.5
0.41504
0.38525
0.375
0.39014
0.40479
0.4248
0.4502
0.44482
0.45996
0.47998
0.50977
0.51514
0.5249
0.54004
0.56006
0.56982
0.55518
0.51514
0.50977
0.5
0.48486
0.4751
0.49023
0.51514
0.5249
0.54004
0.5498
0.56006
0.54492
0.56494
0.56982
0.5752
0.54492
0.54004
0.50488
0.47998
0.49512
0.46484
0.49512
0.5
0.54004
0.52002
0.53516
0.54004
0.5498
0.54492
0.5498
0.56006
0.58008
0.58496
0.58984
0.52979
0.47021
0.4502
0.45508
0.45996
0.49512
0.49023
0.50488
0.5
0.52979
0.54492
0.53516
0.55518
0.56982
0.64014
0.7002
0.70508
0.41992
-0.080078
-0.32471
-0.24463
-0.024902
0.31494
0.56982
0.625
0.625
0.62988
0.60986
0.6001
0.60986
0.58984
0.62012
0.62988
0.61475
0.58008
0.54492
0.50488
0.49512
0.49023
0.48486
0.47021
0.4751
0.4502
0.44482
0.44482
0.45508
0.4502
0.47021
0.43506
0.43994
0.44482
0.45996
0.4502
0.47021
0.4751
0.41016
0.40479
0.46484
0.49023
0.5
0.52002
0.54492
0.53516
0.55518
0.56494
0.51514
0.5
0.52002
0.52002
0.5249
0.49512
0.50488
0.5249
0.52979
0.5
0.53516
0.53516
0.56494
0.56494
0.58496
0.56982
0.56494
0.56982
0.56494
0.52979
0.52002
0.52002
0.50977
0.5249
0.53516
0.54004
0.52002
0.49512
0.49023
0.50488
0.51514
0.53516
0.5498
0.54004
0.55518
0.55518
0.5498
0.54492
0.54004
0.54492
0.49512
0.47998
0.48486
0.49512
0.49023
0.50488
0.51514
0.52002
0.50977
0.5249
0.5498
0.58496
0.66992
0.71973
0.66504
0.4248
-0.084961
-0.29492
-0.23486
-0.014648
0.30029
0.58496
0.6499
0.58984
0.56494
0.56494
0.6001
0.58008
0.56494
0.58496
0.58984
0.58496
0.60986
0.62012
0.6001
0.56494
0.5498
0.54492
0.52002
0.48486
0.49512
0.45508
0.4502
0.4751
0.45508
0.4502
0.43506
0.41992
0.41504
0.43994
0.41992
0.44482
0.45508
0.45508
0.47998
0.5249
0.54004
0.52002
0.56494
0.58496
0.56982
0.58984
0.56494
0.56006
0.52979
0.5
0.49023
0.52979
0.52002
0.52002
0.50488
0.52002
0.5
0.51514
0.54492
0.54004
0.54492
0.56494
0.56982
0.56006
0.54004
0.5249
0.50977
0.50488
0.5249
0.53516
0.55518
0.5249
0.52979
0.5249
0.54004
0.55518
0.54004
0.54492
0.56006
0.5498
0.5249
0.49512
0.49023
0.48486
0.52002
0.51514
0.50977
0.60498
0.66504
0.66992
0.48486
0.070313
-0.23486
-0.26465
0.055176
0.36523
0.625
0.66016
0.5752
0.53516
0.54004
0.54004
0.5498
0.55518
0.54492
0.5752
0.54492
0.56494
0.56494
0.5752
0.56006
0.5498
0.56494
0.5249
0.49512
0.47021
0.49023
0.46484
0.44482
0.44482
0.44482
0.45508
0.4751
0.47021
0.45996
0.4502
0.47998
0.49023
0.49512
0.47998
0.50977
0.52002
0.5
0.44482
0.43994
0.45508
0.47998
0.46484
0.47998
0.49512
0.50977
0.51514
0.49512
0.52002
0.52002
0.5249
0.51514
0.50488
0.52979
0.52002
0.54492
0.56006
0.52002
0.52002
0.52979
0.5249
0.52979
0.54004
0.54492
0.56494
0.56006
0.56494
0.55518
0.56006
0.56494
0.52979
0.50977
0.52002
0.50977
0.52002
0.50488
0.51514
0.52002
0.49512
0.49023
0.48486
0.51514
0.5249
0.50488
0.49512
0.52002
0.52002
0.5249
0.52002
0.49512
0.50488
0.51514
0.49512
0.51514
0.52002
0.53516
0.50977
0.51514
0.49512
0.50977
0.5
0.49023
0.5
0.50977
0.49512
0.50488
0.50977
0.5249
0.53516
0.50977
0.50488
0.52002
0.5
0.49512
0.49512
0.49512
0.50977
0.50488
0.5498
0.625
0.63477
0.5498
0.22021
-0.22998
-0.32959
-0.18994
0.13525
0.47998
0.66504
0.66992
0.59521
0.58984
0.60986
0.56494
0.58008
0.5498
0.54492
0.53516
0.54004
0.54492
0.56494
0.56006
0.56006
0.54492
0.54492
0.50977
0.50488
0.5
0.50977
0.47998
0.43506
0.4248
0.41504
0.38525
0.37988
0.39014
0.3999
0.39502
0.40479
0.41504
0.4248
0.41992
0.43994
0.49023
0.48486
0.53516
0.5498
0.56494
0.52979
0.52002
0.50977
0.51514
0.49512
0.48486
0.51514
0.54004
0.52979
0.54004
0.56982
0.56982
0.56006
0.5752
0.58984
0.59521
0.60498
0.5498
0.54492
0.51514
0.48486
0.46484
0.46484
0.47998
0.5
0.49512
0.50977
0.53516
0.54004
0.52002
0.54004
0.58008
0.58984
0.54004
0.53516
0.54004
0.54492
0.52002
0.54004
0.53516
0.58008
0.65479
0.6499
0.50488
0.095215
-0.29492
-0.33984
-0.029785
0.33008
0.59521
0.68018
0.64502
0.58984
0.58984
0.6001
0.60498
0.58008
0.58984
0.60498
0.5752
0.56494
0.56982
0.5498
0.56006
0.5249
0.51514
0.54004
0.54004
0.5249
0.48486
0.4751
0.45996
0.4502
0.49023
0.5
0.46484
0.47021
0.46484
0.47021
0.45996
0.4751
0.47021
0.46484
0.49512
0.49512
0.49512
0.50488
0.49512
0.48486
0.5
0.49023
0.50488
0.5
0.50977
0.5249
0.54492
0.52002
0.55518
0.56494
0.5249
0.51514
0.52979
0.49512
0.50977
0.51514
0.52002
0.50977
0.52002
0.49023
0.52002
0.56006
0.5752
0.56982
0.5752
0.59521
0.58008
0.56494
0.51514
0.49512
0.50488
0.47021
0.49023
0.48486
0.49512
0.5
0.50488
0.5
0.5249
0.5498
0.55518
0.54004
0.56006
0.56494
0.58984
0.56006
0.54004
0.52002
0.5
0.45996
0.43994
0.4502
0.45508
0.47021
0.46484
0.5249
0.52002
0.54004
0.52979
0.5249
0.54004
0.52979
0.54004
0.55518
0.56494
0.55518
0.58496
0.64502
0.59521
0.49512
0.13525
-0.27979
-0.34473
-0.19482
0.15527
0.49023
0.6748
0.68018
0.66016
0.64502
0.60498
0.58984
0.58984
0.56494
0.56982
0.56006
0.56494
0.56494
0.52979
0.50488
0.51514
0.49023
0.48486
0.50488
0.51514
0.50977
0.52002
0.50977
0.49512
0.45996
0.3999
0.41992
0.3999
0.38525
0.41016
0.38525
0.40479
0.43994
0.46484
0.47021
0.44482
0.4751
0.51514
0.52979
0.52979
0.53516
0.54492
0.5249
0.5
0.50977
0.5
0.49512
0.55518
0.53516
0.53516
0.5249
0.52979
0.54004
0.5249
0.49512
0.52002
0.51514
0.50977
0.5249
0.55518
0.54004
0.55518
0.54004
0.54004
0.5498
0.54492
0.53516
0.54004
0.54004
0.56494
0.59521
0.56982
0.56006
0.56494
0.5
0.50488
0.54492
0.625
0.66992
0.65479
0.4248
-0.049805
-0.31982
-0.21484
0.044922
0.40479
0.68506
0.7251
0.66016
0.60986
0.60498
0.60986
0.58496
0.56494
0.56494
0.56494
0.56006
0.54004
0.54004
0.5498
0.51514
0.50488
0.53516
0.56494
0.56982
0.53516
0.52979
0.50488
0.50488
0.46484
0.44482
0.4248
0.41504
0.41992
0.43506
0.45996
0.41016
0.40479
0.4502
0.47021
0.5
0.54004
0.54004
0.53516
0.56006
0.56494
0.54004
0.54004
0.5249
0.51514
0.50977
0.52979
0.52002
0.50977
0.52979
0.51514
0.50488
0.49512
0.56006
0.58008
0.54492
0.54004
0.54492
0.5498
0.52979
0.5249
0.54004
0.56006
0.58008
0.54004
0.55518
0.56494
0.59521
0.56982
0.58496
0.58984
0.5752
0.58008
0.54004
0.52002
0.51514
0.5498
0.62012
0.62988
0.47021
0.044922
-0.29492
-0.34473
-0.034668
0.33984
0.59521
0.68506
0.66992
0.6499
0.60498
0.58984
0.56494
0.5752
0.56494
0.58496
0.56006
0.5752
0.56494
0.58008
0.5752
0.58984
0.5752
0.58984
0.58008
0.54004
0.50488
0.45996
0.46484
0.47021
0.45996
0.43506
0.43994
0.45508
0.43506
0.45508
0.47998
0.50488
0.50977
0.49512
0.50977
0.52002
0.4751
0.47998
0.47021
0.47998
0.49512
0.49512
0.5249
0.54004
0.51514
0.53516
0.56006
0.5498
0.54004
0.58984
0.56982
0.54492
0.52002
0.50977
0.49512
0.49023
0.51514
0.49023
0.5249
0.53516
0.52002
0.54492
0.56982
0.56006
0.54004
0.5498
0.52002
0.54492
0.52002
0.50977
0.50977
0.51514
0.50488
0.5
0.5249
0.52979
0.5
0.53516
0.52002
0.54004
0.5249
0.52979
0.52002
0.50977
0.51514
0.52002
0.55518
0.52979
0.50977
0.53516
0.5
0.48486
0.5
0.50488
0.49023
0.48486
0.47998
0.52002
0.58008
0.66504
0.68018
0.58008
0.22998
-0.19482
-0.26465
-0.099609
0.19531
0.5
0.66016
0.63477
0.56982
0.56494
0.56006
0.54492
0.54004
0.56494
0.58984
0.6001
0.58984
0.58496
0.58008
0.59521
0.54004
0.53516
0.5498
0.55518
0.48486
0.47021
0.47021
0.46484
0.43506
0.41016
0.43018
0.43506
0.4248
0.43506
0.45508
0.43506
0.4248
0.4248
0.44482
0.47021
0.47998
0.49512
0.51514
0.5
0.52002
0.50977
0.53516
0.52002
0.53516
0.5498
0.54492
0.5249
0.54004
0.54004
0.55518
0.54004
0.52979
0.53516
0.53516
0.52002
0.51514
0.49512
0.51514
0.5249
0.52002
0.55518
0.5498
0.52002
0.52979
0.5249
0.54492
0.5249
0.52002
0.54004
0.53516
0.54492
0.5249
0.50488
0.5249
0.52002
0.52002
0.53516
0.56494
0.55518
0.52979
0.5498
0.52979
0.52002
0.53516
0.54004
0.50977
0.49023
0.5
0.51514
0.50977
0.52002
0.52979
0.5249
0.52979
0.5249
0.53516
0.51514
0.50977
0.52979
0.47998
0.48486
0.49023
0.47021
0.47998
0.47021
0.48486
0.55518
0.65479
0.64014
0.5498
0.20996
-0.22998
-0.29004
-0.14502
0.18994
0.50977
0.6499
0.63477
0.6001
0.58984
0.58496
0.56494
0.56494
0.55518
0.5498
0.56982
0.58984
0.56982
0.5752
0.5752
0.56494
0.55518
0.54492
0.51514
0.49512
0.49023
0.45508
0.43018
0.40479
0.3999
0.4248
0.43506
0.44482
0.4248
0.43994
0.45508
0.45996
0.47021
0.45508
0.47021
0.49023
0.51514
0.52002
0.49512
0.46484
0.45996
0.48486
0.49023
0.51514
0.54492
0.55518
0.56494
0.5498
0.54492
0.53516
0.54492
0.52979
0.52002
0.51514
0.53516
0.50488
0.5
0.51514
0.5249
0.53516
0.54004
0.55518
0.59521
0.6001
0.58984
0.56006
0.52002
0.52979
0.52002
0.52979
0.52979
0.53516
0.53516
0.52979
0.5249
0.53516
0.54492
0.5249
0.53516
0.52979
0.56494
0.50977
0.50488
0.54004
0.53516
0.52979
0.59521
0.66992
0.64502
0.53516
0.16992
-0.23975
-0.33496
-0.10498
0.25
0.58008
0.71973
0.72998
0.62988
0.60986
0.58984
0.58008
0.56494
0.56494
0.5752
0.56006
0.56494
0.56006
0.56494
0.5752
0.55518
0.56494
0.52979
0.52002
0.51514
0.5249
0.50977
0.5
0.47998
0.46484
0.43994
0.45996
0.4248
0.40479
0.41992
0.41504
0.43994
0.44482
0.4502
0.45508
0.49023
0.49512
0.49512
0.52979
0.50977
0.5249
0.5498
0.56494
0.52979
0.52002
0.50977
0.5249
0.54004
0.49512
0.51514
0.51514
0.5249
0.49512
0.50977
0.52979
0.54492
0.5498
0.56006
0.56494
0.54004
0.56494
0.58984
0.5498
0.53516
0.54004
0.5249
0.50977
0.47998
0.48486
0.50977
0.51514
0.49023
0.52002
0.5498
0.55518
0.53516
0.5498
0.52979
0.54492
0.5498
0.54004
0.52979
0.50488
0.49512
0.49512
0.5
0.49512
0.49512
0.49512
0.51514
0.54004
0.54492
0.51514
0.5
0.5249
0.5498
0.53516
0.50488
0.48486
0.50488
0.5
0.50488
0.48486
0.5
0.49023
0.51514
0.52002
0.53516
0.52979
0.52002
0.5249
0.59521
0.60986
0.5752
0.33008
-0.12988
-0.32959
-0.21973
0.044922
0.38525
0.60986
0.6499
0.625
0.61475
0.65479
0.58984
0.56494
0.55518
0.5
0.52979
0.54004
0.56006
0.5498
0.56006
0.54492
0.5752
0.56006
0.5498
0.5498
0.5249
0.49512
0.46484
0.4248
0.41992
0.4248
0.39502
0.3999
0.34521
0.39014
0.40479
0.41016
0.43506
0.46484
0.49512
0.4751
0.51514
0.5249
0.54492
0.55518
0.52979
0.53516
0.5
0.48486
0.49512
0.49512
0.49023
0.4751
0.5
0.52002
0.5
0.49512
0.55518
0.56006
0.56982
0.5498
0.52979
0.51514
0.50977
0.52979
0.54004
0.52979
0.53516
0.54492
0.54004
0.53516
0.54004
0.54004
0.58008
0.58496
0.5752
0.55518
0.58008
0.58496
0.5249
0.52002
0.54004
0.47998
0.47021
0.49512
0.5
0.47998
0.49512
0.51514
0.51514
0.52002
0.5249
0.53516
0.56494
0.56006
0.56494
0.58496
0.53516
0.52002
0.50488
0.49512
0.49023
0.51514
0.47021
0.45996
0.47021
0.4751
0.47998
0.50488
0.52979
0.53516
0.52002
0.5498
0.56494
0.54004
0.56494
0.52002
0.52979
0.59521
0.60498
0.5498
0.33984
-0.11963
-0.34473
-0.25488
0.040039
0.35498
0.625
0.6748
0.62988
0.60498
0.625
0.63477
0.64014
0.59521
0.58984
0.58008
0.56494
0.56006
0.50977
0.50488
0.55518
0.54492
0.5249
0.50977
0.52002
0.54004
0.52002
0.50977
0.47021
0.45996
0.4751
0.47998
0.45508
0.40479
0.41016
0.41016
0.375
0.3999
0.43994
0.45508
0.47998
0.5
0.49512
0.54004
0.52002
0.55518
0.56982
0.58984
0.58984
0.56494
0.5498
0.54004
0.5249
0.52979
0.47998
0.47998
0.50977
0.50488
0.51514
0.49512
0.50977
0.50488
0.54004
0.56006
0.5498
0.56006
0.58496
0.56494
0.54492
0.53516
0.54004
0.51514
0.50977
0.50488
0.51514
0.51514
0.54492
0.56494
0.56006
0.5498
0.54004
0.56006
0.55518
0.5498
0.5752
0.55518
0.52002
0.51514
0.49512
0.49512
0.45996
0.4502
0.4751
0.48486
0.49023
0.50488
0.47998
0.4751
0.50488
0.54004
0.54492
0.54004
0.56982
0.58008
0.52979
0.50488
0.49512
0.5
0.48486
0.47021
0.45508
0.5
0.49512
0.56494
0.62988
0.6499
0.59521
0.28516
-0.14502
-0.27002
-0.16504
0.13525
0.41016
0.58496
0.58984
0.56006
0.54004
0.52979
0.54004
0.53516
0.6001
0.58496
0.58984
0.58008
0.61475
0.6001
0.56982
0.56494
0.58984
0.53516
0.52002
0.5
0.48486
0.4502
0.4248
0.44482
0.45508
0.4248
0.40479
0.43018
0.47021
0.43018
0.4248
0.45996
0.43994
0.47021
0.4751
0.47998
0.47021
0.47021
0.49023
0.49023
0.50977
0.51514
0.54004
0.55518
0.54004
0.53516
0.53516
0.55518
0.56494
0.56006
0.54492
0.52979
0.5
0.49512
0.49512
0.5
0.49023
0.49512
0.52002
0.52979
0.53516
0.56494
0.56494
0.5752
0.55518
0.55518
0.54492
0.56494
0.51514
0.49512
0.5249
0.51514
0.51514
0.52002
0.53516
0.5498
0.55518
0.53516
0.55518
0.53516
0.54492
0.52002
0.5249
0.4751
0.46484
0.4751
0.47021
0.49023
0.48486
0.52002
0.54004
0.54492
0.50488
0.54004
0.55518
0.52979
0.52002
0.54492
0.54004
0.54004
0.54004
0.5498
0.50488
0.44482
0.43994
0.4751
0.4751
0.47021
0.48486
0.49512
0.52979
0.54004
0.52979
0.55518
0.54004
0.49512
0.47021
0.47021
0.5
0.5752
0.625
0.59521
0.43994
0.060059
-0.29004
-0.31982
-0.054688
0.25488
0.5498
0.66016
0.64014
0.62988
0.58008
0.54004
0.56982
0.58008
0.5498
0.55518
0.56006
0.55518
0.54492
0.54492
0.54492
0.55518
0.56494
0.5498
0.56006
0.52979
0.48486
0.49023
0.47998
0.46484
0.43994
0.4502
0.43994
0.46484
0.43018
0.39502
0.37988
0.40479
0.4248
0.41992
0.46484
0.47021
0.45508
0.49023
0.50977
0.52979
0.55518
0.58008
0.56006
0.55518
0.58008
0.58984
0.54492
0.52002
0.51514
0.5249
0.49023
0.51514
0.50488
0.5
0.5249
0.54492
0.5752
0.56494
0.59521
0.58496
0.5752
0.54004
0.53516
0.5249
0.52002
0.52979
0.50977
0.52002
0.54004
0.56006
0.56494
0.56006
0.56006
0.56494
0.5752
0.56494
0.53516
0.52002
0.50977
0.54004
0.52979
0.53516
0.52979
0.55518
0.5249
0.55518
0.54004
0.54004
0.52979
0.53516
0.52002
0.54004
0.54492
0.53516
0.49023
0.48486
0.50977
0.5249
0.54004
0.54492
0.52002
0.52979
0.50977
0.4751
0.52002
0.62012
0.66016
0.62988
0.43994
0.010254
-0.25
-0.2749
0.02002
0.35498
0.63477
0.68018
0.61475
0.56494
0.58008
0.56982
0.54492
0.5249
0.56006
0.56494
0.52979
0.5498
0.56494
0.56494
0.58984
0.5752
0.5498
0.52979
0.52002
0.50977
0.48486
0.5
0.45508
0.44482
0.43018
0.4248
0.43018
0.44482
0.43018
0.4248
0.41992
0.45996
0.43994
0.45508
0.47021
0.47998
0.47021
0.4502
0.4751
0.48486
0.49512
0.49023
0.52979
0.54004
0.52002
0.54004
0.54492
0.5498
0.53516
0.53516
0.52002
0.51514
0.5249
0.53516
0.50977
0.52002
0.5249
0.51514
0.5
0.50488
0.49023
0.49512
0.5249
0.54004
0.54492
0.5498
0.56982
0.58008
0.54004
0.56006
0.58008
0.56006
0.56494
0.56982
0.64502
0.70508
0.66504
0.43994
-0.049805
-0.375
-0.40479
-0.069824
0.3252
0.66992
0.73975
0.66504
0.62012
0.62988
0.60498
0.63477
0.61475
0.58984
0.58496
0.58984
0.5249
0.51514
0.5249
0.5249
0.52002
0.54004
0.50977
0.52002
0.52002
0.50977
0.4751
0.46484
0.4751
0.45996
0.45508
0.43018
0.40479
0.3999
0.3999
0.41992
0.45996
0.4751
0.49512
0.49512
0.51514
0.56982
0.5752
0.54004
0.5498
0.55518
0.51514
0.5
0.48486
0.47021
0.46484
0.47021
0.45508
0.50488
0.54004
0.53516
0.5498
0.56494
0.5498
0.58008
0.5249
0.50977
0.5
0.50977
0.49023
0.49512
0.5249
0.54004
0.5249
0.58008
0.58984
0.56982
0.59521
0.58984
0.56494
0.54004
0.52002
0.50977
0.47021
0.46484
0.49023
0.52002
0.52979
0.50488
0.5249
0.52002
0.53516
0.54492
0.5752
0.56006
0.54004
0.51514
0.50488
0.48486
0.47021
0.48486
0.46484
0.49023
0.4751
0.49023
0.50977
0.51514
0.52979
0.52002
0.52979
0.53516
0.52002
0.53516
0.5498
0.51514
0.5249
0.50488
0.4751
0.48486
0.4751
0.51514
0.6001
0.63477
0.60986
0.39014
-0.040039
-0.30469
-0.31494
-0.014648
0.30518
0.58008
0.64014
0.58984
0.54004
0.55518
0.54004
0.53516
0.56006
0.5752
0.56494
0.5752
0.58984
0.6001
0.62012
0.59521
0.56982
0.56494
0.5249
0.48486
0.4502
0.4248
0.43994
0.44482
0.43994
0.41016
0.4248
0.45508
0.44482
0.46484
0.47021
0.47998
0.49512
0.5
0.49512
0.51514
0.4751
0.47021
0.44482
0.44482
0.46484
0.47021
0.48486
0.50488
0.51514
0.5249
0.54004
0.53516
0.5498
0.58008
0.56494
0.54004
0.54492
0.58496
0.54492
0.51514
0.50977
0.46484
0.45508
0.50488
0.5249
0.56494
0.5752
0.54492
0.56494
0.5752
0.58008
0.58984
0.58496
0.56982
0.5752
0.56494
0.56982
0.56006
0.54492
0.52002
0.51514
0.58496
0.64502
0.66992
0.5752
0.17529
-0.25488
-0.32959
-0.080078
0.29004
0.60498
0.72998
0.68018
0.60986
0.59521
0.60498
0.59521
0.5752
0.56494
0.58008
0.56494
0.54004
0.5249
0.52002
0.49512
0.52979
0.53516
0.54004
0.54004
0.51514
0.50488
0.49512
0.47998
0.48486
0.47998
0.47021
0.45996
0.44482
0.4502
0.44482
0.4502
0.44482
0.43994
0.44482
0.45508
0.4502
0.47998
0.5
0.49512
0.49023
0.5
0.52002
0.51514
0.5249
0.54492
0.53516
0.5498
0.52979
0.50977
0.54004
0.53516
0.54492
0.51514
0.49512
0.49512
0.48486
0.49512
0.50977
0.53516
0.5498
0.52002
0.5249
0.53516
0.54492
0.56006
0.52979
0.54004
0.56494
0.5249
0.50488
0.50488
0.52002
0.53516
0.49023
0.47998
0.50488
0.53516
0.60986
0.64014
0.6499
0.34521
-0.13965
-0.32471
-0.16504
0.14014
0.46484
0.71484
0.75
0.66504
0.58984
0.58984
0.60498
0.58008
0.53516
0.54492
0.5498
0.52979
0.5498
0.56006
0.54492
0.51514
0.50488
0.54004
0.53516
0.52002
0.52979
0.50977
0.49512
0.47021
0.46484
0.47021
0.45996
0.43506
0.3999
0.39502
0.41504
0.375
0.3999
0.43506
0.45508
0.46484
0.45508
0.51514
0.52979
0.5249
0.52979
0.54004
0.56006
0.56982
0.54492
0.55518
0.56006
0.54004
0.53516
0.5498
0.53516
0.53516
0.49512
0.4502
0.44482
0.46484
0.50488
0.52002
0.54004
0.54004
0.55518
0.54492
0.58008
0.55518
0.54492
0.56982
0.5752
0.54004
0.5249
0.53516
0.50977
0.52002
0.50977
0.52002
0.5
0.49512
0.49512
0.50977
0.50488
0.52002
0.52979
0.54492
0.56006
0.56494
0.55518
0.54492
0.5498
0.55518
0.51514
0.53516
0.54004
0.50488
0.47998
0.47021
0.45996
0.47998
0.51514
0.5249
0.50977
0.5
0.50977
0.50488
0.52979
0.52002
0.54004
0.60986
0.68506
0.62988
0.51514
0.125
-0.25488
-0.30957
-0.089844
0.22021
0.52002
0.63477
0.60986
0.56006
0.5752
0.5498
0.54492
0.5752
0.58496
0.5752
0.56494
0.5752
0.59521
0.58984
0.56982
0.58008
0.58008
0.55518
0.54004
0.54492
0.51514
0.4751
0.47021
0.47021
0.43018
0.39014
0.375
0.41504
0.41992
0.41016
0.41992
0.43994
0.43018
0.45508
0.46484
0.47021
0.50977
0.51514
0.54004
0.5498
0.54492
0.54004
0.52002
0.48486
0.48486
0.47021
0.5
0.49512
0.52002
0.5
0.4502
0.41504
0.30029
0.17529
0.14014
0.27002
0.35498
0.36523
-0.029785
-0.49951
-0.49951
-0.49951
-0.49951
-0.46484
-0.049805
0.41992
0.68018
0.79004
0.81982
0.8501
0.89014
0.90967
0.91992
0.94482
0.96484
0.95996
0.95508
0.96973
1
1.0249
1.0698
1.0801
1.04
1.0298
1.0098
0.96484
0.99512
1
0.9751
0.9248
0.89502
0.87012
0.81982
0.78516
0.7251
0.68018
0.64502
0.63477
0.60498
0.58008
0.5498
0.47021
0.41992
0.37988
0.375
0.39014
0.37988
0.39502
0.4502
0.47998
0.4751
0.52002
0.47998
0.47021
0.49023
0.48486
0.5249
0.51514
0.5249
0.54492
0.52979
0.49512
0.4502
0.38525
0.375
0.39014
0.38525
0.4248
0.41992
0.47021
0.49023
0.48486
0.5
0.49512
0.52002
0.52002
0.50488
0.50977
0.5
0.54004
0.51514
0.50488
0.51514
0.5498
0.56494
0.53516
0.47998
0.41016
0.39502
0.41992
0.45508
0.46484
0.44482
0.4502
0.44482
0.43994
0.45996
0.46484
0.4502
0.47998
0.49512
0.49512
0.50488
0.50977
0.5498
0.52002
0.50977
0.5249
0.5
0.51514
0.50488
0.53516
0.55518
0.56494
0.5249
0.45996
0.43506
0.4248
0.44482
0.45508
0.44482
0.4502
0.4751
0.52979
0.60498
0.58496
0.50488
0.18018
-0.22461
-0.32471
-0.18994
0.1499
0.49512
0.69482
0.7002
0.63477
0.58984
0.53516
0.52002
0.54004
0.51514
0.50977
0.52002
0.50977
0.51514
0.5249
0.5498
0.54004
0.5249
0.55518
0.54004
0.5249
0.5498
0.54004
0.47998
0.41504
0.33984
0.30518
0.30029
0.3252
0.33008
0.33008
0.33984
0.375
0.37988
0.4248
0.4248
0.4502
0.5
0.50488
0.54004
0.53516
0.55518
0.5498
0.56006
0.56494
0.55518
0.56494
0.56494
0.58496
0.5752
0.54492
0.50488
0.4502
0.43506
0.46484
0.49023
0.51514
0.50977
0.5249
0.54004
0.5498
0.54004
0.54492
0.56494
0.58008
0.5752
0.55518
0.5752
0.58496
0.6001
0.56494
0.54492
0.56006
0.58496
0.58984
0.56006
0.52979
0.4751
0.47998
0.4751
0.52002
0.61475
0.66016
0.60498
0.3501
-0.084961
-0.2749
-0.18506
0.080078
0.44482
0.71973
0.75977
0.68018
0.65479
0.64502
0.6001
0.52979
0.49023
0.48486
0.5
0.53516
0.52002
0.54004
0.5498
0.5498
0.5498
0.56006
0.54004
0.53516
0.54004
0.54004
0.52002
0.52979
0.48486
0.43506
0.37988
0.36523
0.38525
0.39502
0.41504
0.40479
0.4502
0.48486
0.50488
0.5
0.51514
0.5498
0.56006
0.54492
0.54004
0.5752
0.58984
0.56982
0.52002
0.5249
0.47021
0.43506
0.43994
0.46484
0.47021
0.50977
0.54492
0.56006
0.56006
0.56494
0.5498
0.58008
0.58496
0.58984
0.58008
0.56494
0.56494
0.56982
0.58008
0.5752
0.59521
0.53516
0.5
0.47998
0.4751
0.49512
0.51514
0.56006
0.64502
0.6748
0.68018
0.35986
-0.14502
-0.36475
-0.25
0.090332
0.46484
0.71484
0.75
0.6748
0.63477
0.62988
0.64014
0.62012
0.625
0.64502
0.66504
0.60498
0.53516
0.52002
0.47998
0.49512
0.50488
0.53516
0.5
0.48486
0.4751
0.49512
0.4751
0.48486
0.49512
0.4751
0.47021
0.5
0.49512
0.48486
0.50488
0.50977
0.52979
0.50488
0.44482
0.3999
0.40479
0.41016
0.45996
0.47021
0.5
0.49512
0.49512
0.49512
0.53516
0.54004
0.54004
0.53516
0.5498
0.56006
0.56982
0.5498
0.51514
0.45996
0.4502
0.47021
0.49512
0.48486
0.49023
0.50977
0.52979
0.54492
0.56006
0.58008
0.54004
0.52979
0.56006
0.56982
0.58008
0.54004
0.52002
0.47021
0.47021
0.46484
0.45996
0.48486
0.52002
0.49023
0.5249
0.5498
0.5
0.53516
0.54004
0.54004
0.5498
0.54492
0.5752
0.56494
0.5498
0.55518
0.46484
0.45996
0.47021
0.45996
0.46484
0.49512
0.49512
0.48486
0.49023
0.49512
0.5
0.50488
0.5
0.54004
0.54004
0.56006
0.55518
0.53516
0.52979
0.5
0.45996
0.44482
0.46484
0.47998
0.47021
0.47998
0.49023
0.49512
0.5
0.52979
0.5249
0.53516
0.5
0.51514
0.51514
0.49512
0.51514
0.5
0.49512
0.50488
0.49512
0.50977
0.4751
0.49023
0.47998
0.48486
0.5
0.52002
0.54004
0.55518
0.56982
0.55518
0.59521
0.52979
0.28027
-0.1499
-0.40967
-0.2998
-0.024902
0.33008
0.58496
0.63477
0.61475
0.59521
0.6001
0.61475
0.625
0.64014
0.6001
0.58496
0.55518
0.53516
0.52002
0.5249
0.53516
0.5249
0.50488
0.5249
0.52002
0.52979
0.54492
0.5249
0.48486
0.4502
0.43994
0.41016
0.39502
0.39014
0.36523
0.37012
0.35498
0.35986
0.375
0.41504
0.44482
0.45996
0.46484
0.51514
0.52979
0.54492
0.5498
0.49023
0.5
0.49512
0.47998
0.47021
0.49512
0.50488
0.52002
0.52002
0.53516
0.54004
0.56006
0.56494
0.58008
0.5752
0.59521
0.62012
0.6001
0.54492
0.51514
0.50488
0.51514
0.50488
0.49512
0.50488
0.51514
0.5249
0.52979
0.54004
0.52979
0.56006
0.53516
0.56494
0.5752
0.6001
0.62988
0.69482
0.70996
0.62012
0.29492
-0.18994
-0.32471
-0.16504
0.1499
0.47998
0.6748
0.7002
0.66016
0.62012
0.63477
0.65479
0.68018
0.6499
0.5752
0.55518
0.56006
0.52002
0.53516
0.52979
0.5249
0.52002
0.53516
0.54004
0.52002
0.51514
0.54004
0.50977
0.52002
0.52979
0.52002
0.53516
0.48486
0.41992
0.41504
0.41992
0.43506
0.44482
0.46484
0.47021
0.48486
0.5
0.51514
0.49023
0.52002
0.5752
0.6001
0.56494
0.5498
0.55518
0.50977
0.4751
0.47021
0.52002
0.53516
0.52002
0.50977
0.5249
0.52979
0.56494
0.58008
0.55518
0.58008
0.56494
0.6001
0.60986
0.56982
0.53516
0.47021
0.47021
0.49512
0.49023
0.51514
0.53516
0.50977
0.51514
0.52002
0.52002
0.50488
0.5249
0.56982
0.5498
0.5752
0.58984
0.5752
0.54004
0.5
0.47998
0.49512
0.46484
0.48486
0.52979
0.62012
0.68994
0.65479
0.47021
0.060059
-0.23486
-0.25488
-0.0048828
0.3252
0.56006
0.66016
0.62988
0.58496
0.5752
0.58008
0.5498
0.55518
0.56006
0.58496
0.58984
0.59521
0.61475
0.6001
0.5752
0.56982
0.56006
0.5498
0.5249
0.4751
0.44482
0.43994
0.43018
0.41504
0.41992
0.41992
0.41016
0.41016
0.41504
0.44482
0.47021
0.48486
0.5
0.54004
0.54004
0.5498
0.52002
0.47021
0.48486
0.4751
0.46484
0.4502
0.47021
0.49512
0.49023
0.5
0.50977
0.52002
0.5498
0.56494
0.56006
0.56494
0.53516
0.54004
0.54004
0.50488
0.4751
0.45508
0.47021
0.48486
0.4751
0.50977
0.51514
0.56006
0.54492
0.56494
0.56494
0.58496
0.58008
0.58984
0.56494
0.58496
0.58984
0.5249
0.47998
0.47021
0.4502
0.45996
0.49023
0.50977
0.50488
0.51514
0.52002
0.5249
0.54004
0.52979
0.55518
0.56494
0.53516
0.52002
0.49512
0.47998
0.47021
0.45996
0.45508
0.48486
0.5
0.52002
0.53516
0.5498
0.53516
0.52979
0.54492
0.54492
0.54004
0.50977
0.49512
0.47021
0.45996
0.47021
0.5249
0.62012
0.63477
0.58008
0.31982
-0.1499
-0.30957
-0.16992
0.11523
0.43506
0.66016
0.6748
0.60986
0.58008
0.5249
0.51514
0.50977
0.5249
0.54492
0.53516
0.52979
0.56006
0.58496
0.56494
0.56494
0.56494
0.55518
0.54004
0.53516
0.56494
0.52979
0.49512
0.43994
0.4248
0.375
0.3501
0.36523
0.37012
0.37988
0.39014
0.40479
0.4248
0.4751
0.47021
0.50488
0.51514
0.5249
0.56006
0.54492
0.49512
0.49512
0.47021
0.4502
0.45508
0.4751
0.49512
0.51514
0.53516
0.54004
0.54004
0.5752
0.61475
0.58984
0.58496
0.58008
0.56494
0.5249
0.50977
0.5
0.50977
0.53516
0.5498
0.52002
0.51514
0.52979
0.54492
0.56494
0.55518
0.58984
0.58984
0.59521
0.56494
0.54492
0.53516
0.51514
0.52002
0.51514
0.54004
0.54004
0.54004
0.53516
0.51514
0.5752
0.64502
0.7002
0.70508
0.41992
-0.089844
-0.33984
-0.23975
0.030273
0.375
0.64014
0.68018
0.64502
0.625
0.60986
0.60498
0.60986
0.58984
0.60986
0.62012
0.60498
0.5752
0.5498
0.54004
0.56006
0.5498
0.56006
0.56494
0.54004
0.53516
0.54004
0.5249
0.52979
0.53516
0.49023
0.45996
0.44482
0.41992
0.3999
0.39502
0.41992
0.4248
0.43506
0.45996
0.47998
0.51514
0.54004
0.54492
0.54004
0.56006
0.56494
0.5752
0.54492
0.5249
0.52979
0.5
0.48486
0.47998
0.49512
0.49023
0.52002
0.53516
0.54004
0.54004
0.56494
0.55518
0.54492
0.56494
0.56494
0.53516
0.53516
0.54004
0.55518
0.53516
0.54004
0.51514
0.52002
0.49512
0.50488
0.5
0.5249
0.53516
0.5249
0.51514
0.56494
0.6499
0.71484
0.68994
0.4502
-0.014648
-0.31494
-0.31982
0.024902
0.39014
0.66016
0.72998
0.66992
0.61475
0.58984
0.58496
0.59521
0.58008
0.56006
0.58008
0.58984
0.58496
0.58008
0.56982
0.56494
0.54004
0.52002
0.52002
0.5249
0.51514
0.47021
0.45508
0.43994
0.4502
0.43994
0.4248
0.43018
0.43994
0.4248
0.4502
0.46484
0.47998
0.49512
0.50488
0.50977
0.4751
0.48486
0.46484
0.47998
0.49512
0.5
0.49512
0.50488
0.51514
0.50488
0.5
0.52002
0.53516
0.53516
0.54004
0.56494
0.53516
0.51514
0.52002
0.53516
0.54004
0.5498
0.49512
0.5249
0.53516
0.52002
0.52979
0.53516
0.52979
0.53516
0.52002
0.55518
0.53516
0.5752
0.66992
0.70508
0.62988
0.33008
-0.18506
-0.31982
-0.16504
0.1499
0.49023
0.6748
0.68994
0.61475
0.58984
0.58984
0.58984
0.56494
0.56982
0.58496
0.59521
0.56982
0.59521
0.56006
0.54004
0.55518
0.56494
0.54492
0.54004
0.5
0.47998
0.47021
0.46484
0.45996
0.45508
0.45996
0.43506
0.44482
0.46484
0.44482
0.43506
0.46484
0.45508
0.49512
0.49023
0.5
0.48486
0.50977
0.51514
0.53516
0.54004
0.54492
0.5498
0.52002
0.50977
0.49023
0.49512
0.50977
0.52979
0.50977
0.49512
0.50977
0.52002
0.5
0.54492
0.54004
0.56494
0.56494
0.5752
0.54004
0.55518
0.56006
0.54004
0.48486
0.49023
0.5
0.50977
0.52002
0.53516
0.5498
0.54492
0.56006
0.55518
0.58984
0.60986
0.66016
0.73486
0.69482
0.54004
0.11523
-0.29492
-0.36963
-0.1499
0.24023
0.56982
0.71484
0.68994
0.68018
0.64502
0.61475
0.625
0.62988
0.60986
0.58008
0.5752
0.54004
0.53516
0.54492
0.5249
0.5249
0.52002
0.53516
0.54004
0.51514
0.52979
0.52002
0.49512
0.50488
0.5
0.45996
0.46484
0.43994
0.4248
0.43994
0.43506
0.4502
0.46484
0.5
0.49512
0.51514
0.54004
0.55518
0.5498
0.56494
0.54004
0.54004
0.52002
0.5249
0.53516
0.5249
0.5
0.52002
0.5249
0.52002
0.51514
0.52979
0.53516
0.5249
0.54004
0.53516
0.56494
0.56494
0.5752
0.58984
0.56982
0.55518
0.56006
0.56494
0.54004
0.50977
0.52002
0.52002
0.53516
0.54004
0.5498
0.54492
0.5498
0.52002
0.54492
0.56494
0.58008
0.56494
0.5249
0.51514
0.50977
0.54004
0.62988
0.6748
0.62012
0.3501
-0.15967
-0.35498
-0.20459
0.12012
0.46484
0.68994
0.70508
0.62012
0.6001
0.60498
0.55518
0.56006
0.54492
0.55518
0.5752
0.58984
0.58496
0.60986
0.62012
0.54492
0.52979
0.5249
0.52979
0.50977
0.49512
0.45508
0.43994
0.43506
0.43018
0.4248
0.45508
0.44482
0.44482
0.44482
0.47998
0.4751
0.46484
0.4502
0.45508
0.43994
0.4751
0.47021
0.4751
0.49512
0.47021
0.4751
0.48486
0.50977
0.52002
0.5498
0.56006
0.51514
0.54004
0.54492
0.5249
0.5498
0.5249
0.50488
0.52002
0.50977
0.5249
0.53516
0.52979
0.55518
0.54492
0.54004
0.54004
0.56494
0.52979
0.50488
0.52002
0.52979
0.58496
0.64502
0.64014
0.43994
-0.054688
-0.31494
-0.20996
0.060059
0.4248
0.70508
0.75
0.64502
0.625
0.59521
0.58008
0.58496
0.56494
0.5752
0.56006
0.53516
0.52979
0.54004
0.5498
0.56494
0.58496
0.58984
0.58008
0.56006
0.53516
0.5249
0.49512
0.47021
0.4502
0.43506
0.41992
0.41016
0.39502
0.40479
0.43506
0.44482
0.43994
0.45996
0.47021
0.4751
0.49512
0.52002
0.5249
0.50488
0.51514
0.52002
0.54004
0.54492
0.52002
0.55518
0.54004
0.5249
0.52979
0.53516
0.52979
0.53516
0.54004
0.52979
0.5498
0.51514
0.50488
0.53516
0.53516
0.54004
0.50977
0.5249
0.52002
0.53516
0.5498
0.54492
0.5498
0.52002
0.5
0.52002
0.50488
0.49512
0.52002
0.54004
0.52979
0.54492
0.53516
0.58496
0.5498
0.56006
0.58984
0.66016
0.68506
0.6499
0.43506
-0.064941
-0.37988
-0.38477
-0.049805
0.33984
0.625
0.68506
0.66992
0.58496
0.56982
0.58496
0.58984
0.6001
0.58008
0.58496
0.5752
0.5498
0.54004
0.54004
0.5249
0.5498
0.54004
0.54004
0.52979
0.54004
0.50977
0.5
0.49512
0.47021
0.47021
0.43994
0.40479
0.3999
0.41016
0.37988
0.39502
0.4248
0.44482
0.4502
0.47021
0.51514
0.5
0.54004
0.55518
0.53516
0.53516
0.51514
0.52979
0.48486
0.5
0.4751
0.47998
0.49512
0.5249
0.54004
0.52002
0.53516
0.54492
0.55518
0.58984
0.56494
0.54004
0.5249
0.51514
0.50977
0.52002
0.5
0.52002
0.53516
0.54004
0.56006
0.56494
0.56006
0.54004
0.55518
0.58984
0.56982
0.58008
0.54492
0.50977
0.4751
0.49023
0.49512
0.47998
0.50488
0.52002
0.51514
0.50977
0.52979
0.55518
0.55518
0.56494
0.55518
0.54004
0.56006
0.56494
0.51514
0.47021
0.49023
0.49512
0.4751
0.49512
0.49512
0.50488
0.51514
0.50977
0.51514
0.53516
0.56494
0.64014
0.70508
0.66504
0.45508
-0.0097656
-0.32959
-0.375
-0.064941
0.28516
0.58008
0.68018
0.63477
0.64014
0.60986
0.6001
0.62988
0.5752
0.56494
0.56982
0.56006
0.54004
0.52979
0.56494
0.54004
0.5249
0.5498
0.5249
0.54492
0.54004
0.52002
0.50488
0.49512
0.46484
0.4502
0.4248
0.43018
0.43994
0.3999
0.41016
0.41992
0.43506
0.41504
0.43018
0.4248
0.45508
0.51514
0.49512
0.51514
0.5
0.47998
0.48486
0.50977
0.5249
0.52002
0.52002
0.53516
0.54004
0.5249
0.54004
0.54492
0.54004
0.52002
0.52002
0.5249
0.52002
0.50488
0.53516
0.54004
0.53516
0.54004
0.5752
0.5498
0.54004
0.65479
0.71484
0.68018
0.4751
0.015137
-0.24463
-0.25488
0.060059
0.38525
0.6499
0.68506
0.62012
0.625
0.60498
0.58984
0.58984
0.59521
0.58984
0.56494
0.56006
0.5752
0.56006
0.5249
0.5249
0.52002
0.54004
0.52979
0.54004
0.53516
0.49512
0.49512
0.47021
0.4751
0.4248
0.3999
0.38525
0.40479
0.43018
0.45508
0.4751
0.48486
0.46484
0.49023
0.51514
0.5498
0.52002
0.52002
0.53516
0.50977
0.51514
0.5249
0.51514
0.5
0.52002
0.51514
0.54004
0.5249
0.5249
0.53516
0.5249
0.53516
0.54004
0.53516
0.5498
0.52002
0.50977
0.52002
0.49023
0.5
0.54004
0.55518
0.54004
0.54492
0.52002
0.51514
0.5249
0.53516
0.53516
0.5249
0.54492
0.53516
0.50977
0.54492
0.64502
0.68018
0.66504
0.46484
-0.044922
-0.31982
-0.33984
-0.0048828
0.37988
0.64502
0.70996
0.65479
0.60986
0.58984
0.58984
0.58984
0.6001
0.56494
0.5498
0.56006
0.5752
0.56006
0.55518
0.58984
0.58984
0.59521
0.56982
0.54004
0.53516
0.49023
0.45508
0.43018
0.41504
0.40479
0.39502
0.3999
0.3999
0.40479
0.41504
0.44482
0.43506
0.43994
0.49023
0.49512
0.51514
0.54492
0.5752
0.58496
0.6001
0.52979
0.49512
0.45508
0.44482
0.48486
0.47998
0.5
0.49512
0.5249
0.54004
0.52002
0.54492
0.56006
0.54492
0.54004
0.56982
0.58008
0.56982
0.50488
0.46484
0.45996
0.5
0.50488
0.54492
0.5498
0.55518
0.54004
0.55518
0.5498
0.58496
0.60986
0.60498
0.60986
0.6001
0.60986
0.58496
0.54492
0.5
0.49023
0.45508
0.47998
0.54004
0.60986
0.62012
0.49023
0.10986
-0.27979
-0.34961
-0.069824
0.26514
0.5752
0.74512
0.70996
0.68994
0.64502
0.60498
0.5752
0.5498
0.56494
0.54004
0.5249
0.54004
0.56982
0.58008
0.55518
0.5752
0.56006
0.58008
0.5752
0.60498
0.60986
0.58008
0.50488
0.4751
0.43018
0.3999
0.41504
0.41992
0.3999
0.39502
0.41992
0.45508
0.4751
0.49023
0.50977
0.54004
0.58496
0.5752
0.5752
0.58008
0.52002
0.50488
0.49023
0.48486
0.50977
0.46484
0.48486
0.49023
0.52979
0.54492
0.54004
0.54492
0.54004
0.58008
0.59521
0.58496
0.5752
0.52002
0.49512
0.5
0.49512
0.49023
0.49512
0.50977
0.50488
0.5249
0.52002
0.53516
0.5498
0.54492
0.54004
0.56982
0.58984
0.56494
0.56982
0.50977
0.49023
0.47998
0.49512
0.46484
0.49023
0.49512
0.48486
0.50488
0.5
0.52002
0.54004
0.5498
0.55518
0.56494
0.64502
0.68506
0.65479
0.4248
0
-0.30957
-0.33496
-0.024902
0.30029
0.58984
0.66992
0.62012
0.58984
0.6001
0.62988
0.60498
0.59521
0.56494
0.56494
0.54492
0.51514
0.50488
0.50977
0.52002
0.50977
0.52002
0.50977
0.49512
0.49512
0.49023
0.50488
0.48486
0.46484
0.46484
0.4751
0.41992
0.38525
0.375
0.39502
0.37988
0.3999
0.41504
0.43994
0.45508
0.51514
0.54004
0.51514
0.52002
0.53516
0.5249
0.54004
0.52979
0.50488
0.4751
0.47021
0.48486
0.46484
0.49512
0.49512
0.47998
0.5
0.50488
0.5
0.54492
0.5752
0.56982
0.5498
0.56006
0.52979
0.50977
0.52002
0.52979
0.54004
0.53516
0.52979
0.55518
0.54004
0.53516
0.54492
0.56006
0.54004
0.56494
0.56006
0.53516
0.51514
0.47998
0.46484
0.45996
0.49512
0.5
0.50488
0.53516
0.52002
0.5
0.5249
0.60498
0.7251
0.72998
0.65479
0.33984
-0.15967
-0.33984
-0.20996
0.095215
0.41992
0.62012
0.64014
0.58984
0.58496
0.59521
0.56982
0.56494
0.58984
0.58984
0.60986
0.64014
0.64502
0.55518
0.5249
0.53516
0.50488
0.52979
0.50977
0.49023
0.47021
0.4502
0.45508
0.44482
0.45508
0.43506
0.4502
0.45508
0.45996
0.41504
0.41992
0.43506
0.41992
0.43018
0.4502
0.4502
0.49512
0.5
0.52002
0.54004
0.5498
0.54004
0.53516
0.54004
0.56494
0.52979
0.50977
0.48486
0.49512
0.50977
0.52002
0.49512
0.50977
0.52979
0.5249
0.53516
0.55518
0.56006
0.56494
0.55518
0.56006
0.5752
0.54004
0.53516
0.50977
0.51514
0.52002
0.54004
0.5498
0.56494
0.56006
0.61475
0.68018
0.70508
0.61475
0.33008
-0.20996
-0.35986
-0.16992
0.14502
0.47998
0.66992
0.68506
0.62988
0.60986
0.62988
0.60986
0.62988
0.61475
0.58496
0.58984
0.55518
0.56006
0.58496
0.56494
0.5752
0.58496
0.54492
0.5249
0.52979
0.52002
0.50488
0.51514
0.49023
0.49512
0.4751
0.45996
0.43994
0.45508
0.4502
0.44482
0.50977
0.50977
0.49512
0.49023
0.4751
0.5
0.52979
0.54004
0.53516
0.52979
0.50977
0.5
0.5
0.52979
0.54004
0.56494
0.58008
0.56494
0.55518
0.52979
0.54004
0.54004
0.54004
0.5498
0.54492
0.53516
0.49023
0.51514
0.5
0.49512
0.52002
0.50977
0.5498
0.56982
0.5498
0.56006
0.54004
0.5498
0.55518
0.54492
0.52979
0.52002
0.49512
0.4751
0.47998
0.47021
0.49512
0.50488
0.49512
0.53516
0.56006
0.56494
0.56006
0.56494
0.54492
0.54004
0.52979
0.52002
0.50977
0.49023
0.4751
0.48486
0.50488
0.52002
0.51514
0.52979
0.54492
0.52979
0.50977
0.54004
0.6001
0.64014
0.62012
0.36523
-0.054688
-0.27002
-0.29004
-0.0048828
0.3252
0.5752
0.60498
0.58984
0.60498
0.60986
0.60986
0.59521
0.58496
0.56494
0.55518
0.54492
0.56006
0.54492
0.54004
0.56006
0.54004
0.53516
0.52002
0.50977
0.5249
0.52002
0.50977
0.47021
0.43994
0.43506
0.39502
0.38525
0.39014
0.41016
0.41992
0.41504
0.46484
0.47021
0.45996
0.47021
0.46484
0.47021
0.46484
0.47998
0.47021
0.48486
0.5
0.48486
0.50977
0.49512
0.53516
0.54492
0.5249
0.55518
0.5752
0.58984
0.5752
0.54492
0.5498
0.52979
0.54004
0.5249
0.52002
0.54492
0.52002
0.50977
0.51514
0.51514
0.50977
0.54004
0.54492
0.54004
0.54004
0.55518
0.50488
0.5498
0.56006
0.52002
0.5498
0.52002
0.50977
0.5249
0.52002
0.54004
0.54492
0.52979
0.50977
0.52979
0.52002
0.5
0.52002
0.52002
0.51514
0.51514
0.50977
0.5249
0.51514
0.52002
0.50977
0.51514
0.53516
0.52002
0.52002
0.51514
0.5
0.50977
0.52979
0.51514
0.58496
0.66016
0.68018
0.60498
0.39502
-0.064941
-0.29492
-0.30469
-0.029785
0.3252
0.59521
0.62988
0.60986
0.58008
0.58984
0.58008
0.56982
0.59521
0.58008
0.5752
0.58496
0.52979
0.54004
0.52979
0.56494
0.54004
0.54004
0.54004
0.53516
0.5498
0.51514
0.52002
0.50488
0.47998
0.4502
0.43018
0.41016
0.39014
0.3999
0.375
0.375
0.375
0.39502
0.43018
0.4751
0.50977
0.52002
0.52002
0.51514
0.54004
0.5498
0.56494
0.54492
0.56006
0.56982
0.56006
0.52979
0.5249
0.50977
0.5
0.5249
0.5249
0.54004
0.55518
0.5752
0.5498
0.53516
0.5498
0.55518
0.54492
0.56494
0.5752
0.55518
0.54004
0.55518
0.54004
0.5249
0.52002
0.53516
0.5498
0.5249
0.52002
0.5498
0.64502
0.7002
0.70508
0.5249
0.064941
-0.23975
-0.29004
0
0.37012
0.6499
0.73486
0.68506
0.58496
0.56006
0.55518
0.5752
0.55518
0.5498
0.56494
0.56982
0.58984
0.58008
0.58008
0.58984
0.5752
0.53516
0.54492
0.56494
0.5498
0.53516
0.5
0.46484
0.43506
0.43018
0.44482
0.4502
0.41016
0.43506
0.46484
0.47021
0.44482
0.4502
0.48486
0.50488
0.5249
0.5752
0.56494
0.54492
0.54004
0.5
0.49512
0.51514
0.49512
0.50977
0.52002
0.51514
0.54492
0.56006
0.49512
0.5249
0.55518
0.56494
0.52979
0.52979
0.5249
0.52002
0.53516
0.54004
0.52002
0.52002
0.53516
0.52002
0.5249
0.50488
0.49512
0.5
0.52002
0.5
0.53516
0.55518
0.62988
0.68018
0.6499
0.6001
0.24023
-0.21973
-0.33496
-0.1499
0.2251
0.55518
0.7251
0.68018
0.62988
0.59521
0.58008
0.58984
0.6001
0.58496
0.59521
0.58008
0.55518
0.56006
0.54492
0.56494
0.54004
0.52979
0.51514
0.50488
0.49512
0.50488
0.4751
0.47021
0.46484
0.4502
0.45996
0.43018
0.43994
0.45508
0.41504
0.4248
0.4248
0.45508
0.45996
0.4751
0.47021
0.51514
0.50977
0.54004
0.54004
0.53516
0.56006
0.56494
0.54004
0.54492
0.53516
0.5
0.49023
0.49023
0.5
0.51514
0.51514
0.49512
0.50977
0.5
0.52002
0.49512
0.52002
0.54004
0.53516
0.55518
0.54492
0.53516
0.53516
0.52002
0.52002
0.50488
0.52002
0.5249
0.54004
0.55518
0.56494
0.53516
0.50977
0.52002
0.52002
0.54004
0.5249
0.5249
0.55518
0.56982
0.51514
0.58008
0.66016
0.60986
0.38525
-0.089844
-0.33984
-0.22998
0.044922
0.39014
0.66992
0.7002
0.62988
0.62012
0.62988
0.56494
0.55518
0.54004
0.52979
0.55518
0.58496
0.58008
0.59521
0.58984
0.59521
0.59521
0.6001
0.55518
0.56006
0.53516
0.52002
0.49512
0.45508
0.41992
0.39502
0.38525
0.37988
0.37012
0.37988
0.41992
0.43994
0.45508
0.46484
0.49512
0.49512
0.49512
0.50977
0.52002
0.50488
0.54492
0.5249
0.52002
0.5249
0.49512
0.5249
0.54004
0.52002
0.54004
0.56494
0.5498
0.58496
0.56982
0.56006
0.54004
0.5249
0.5
0.47998
0.49512
0.5
0.51514
0.5249
0.53516
0.56006
0.56982
0.59521
0.56494
0.58008
0.58496
0.54004
0.51514
0.52979
0.56494
0.5249
0.49023
0.52002
0.5249
0.52002
0.5752
0.6748
0.72998
0.63477
0.27002
-0.20996
-0.30469
-0.10498
0.18994
0.50977
0.66992
0.63477
0.60498
0.56982
0.58984
0.59521
0.58008
0.56982
0.58496
0.59521
0.625
0.6001
0.56982
0.56494
0.56982
0.5498
0.56494
0.52002
0.50488
0.50977
0.49512
0.5
0.47021
0.47998
0.49023
0.4751
0.46484
0.49512
0.49512
0.5
0.50977
0.50488
0.51514
0.52979
0.50977
0.4751
0.43506
0.43018
0.47021
0.47998
0.50488
0.5
0.51514
0.52002
0.52002
0.54004
0.52002
0.5249
0.54004
0.54492
0.56006
0.58008
0.5498
0.5249
0.50488
0.50488
0.52979
0.51514
0.52002
0.5249
0.54492
0.56494
0.52979
0.55518
0.56006
0.5752
0.5498
0.5498
0.56494
0.56494
0.58984
0.6001
0.65479
0.70996
0.73486
0.6001
0.16504
-0.24463
-0.34473
-0.16504
0.22021
0.52979
0.64014
0.60986
0.56494
0.56006
0.5752
0.56494
0.5498
0.56494
0.56494
0.58008
0.56006
0.58496
0.60986
0.61475
0.60498
0.60986
0.5498
0.52979
0.47998
0.45996
0.43506
0.41992
0.43994
0.41992
0.43018
0.44482
0.44482
0.45508
0.41992
0.46484
0.50977
0.52979
0.52002
0.5
0.45996
0.43506
0.44482
0.44482
0.4751
0.47998
0.43506
0.47021
0.48486
0.47998
0.50488
0.52979
0.52002
0.52979
0.56494
0.5498
0.54492
0.58984
0.625
0.60498
0.50488
0.4751
0.45508
0.46484
0.47998
0.48486
0.50488
0.51514
0.5
0.50977
0.52002
0.52979
0.52002
0.54004
0.55518
0.5498
0.54004
0.55518
0.59521
0.60986
0.52002
0.46484
0.4502
0.4751
0.46484
0.45996
0.47021
0.49512
0.5
0.51514
0.52002
0.54004
0.53516
0.5249
0.52002
0.55518
0.58984
0.5752
0.5498
0.5
0.52979
0.58984
0.60498
0.5249
0.18994
-0.25
-0.34961
-0.15479
0.125
0.45508
0.66992
0.6499
0.62012
0.60986
0.62012
0.6001
0.58984
0.59521
0.55518
0.54492
0.5249
0.52002
0.51514
0.52002
0.50977
0.5498
0.55518
0.53516
0.54004
0.5249
0.51514
0.50977
0.5
0.46484
0.45508
0.4751
0.46484
0.49512
0.47998
0.43994
0.40479
0.36523
0.35986
0.39014
0.41016
0.44482
0.46484
0.49512
0.49023
0.5
0.50977
0.5
0.50977
0.5249
0.54004
0.52002
0.52979
0.54492
0.58008
0.56006
0.5249
0.49023
0.4751
0.49512
0.53516
0.5249
0.52002
0.54004
0.54492
0.58008
0.56006
0.5498
0.56982
0.58008
0.5752
0.56494
0.6001
0.58984
0.58008
0.54492
0.52979
0.49023
0.4502
0.44482
0.47021
0.49023
0.50488
0.5
0.55518
0.63477
0.68506
0.68994
0.3999
-0.094727
-0.31494
-0.17969
0.084961
0.43018
0.68506
0.75
0.72998
0.70996
0.65479
0.6001
0.5249
0.50488
0.5249
0.53516
0.54492
0.52002
0.54004
0.5249
0.52979
0.5249
0.54492
0.53516
0.54004
0.5498
0.55518
0.5249
0.52979
0.5498
0.56494
0.50488
0.4502
0.39502
0.37988
0.39014
0.3999
0.41016
0.41992
0.46484
0.4751
0.49023
0.51514
0.5249
0.51514
0.53516
0.56006
0.58496
0.5752
0.60498
0.61475
0.58984
0.56006
0.51514
0.45996
0.48486
0.48486
0.49023
0.47021
0.52002
0.54004
0.54004
0.53516
0.53516
0.56982
0.58008
0.56494
0.56982
0.58496
0.56982
0.58496
0.6001
0.625
0.65479
0.68018
0.66504
0.56494
0.25
-0.23486
-0.37988
-0.20459
0.16992
0.49512
0.6748
0.68018
0.60986
0.62012
0.6001
0.59521
0.6001
0.60986
0.59521
0.59521
0.625
0.65479
0.62988
0.5498
0.50488
0.48486
0.47021
0.46484
0.48486
0.47021
0.46484
0.49512
0.48486
0.48486
0.46484
0.45508
0.48486
0.50977
0.51514
0.52002
0.53516
0.49512
0.46484
0.45508
0.43018
0.43994
0.47021
0.44482
0.45996
0.4751
0.50488
0.50977
0.49023
0.5249
0.5498
0.56982
0.58496
0.55518
0.52979
0.51514
0.49023
0.47998
0.46484
0.47021
0.49512
0.49023
0.4751
0.49512
0.50977
0.54492
0.55518
0.56982
0.6001
0.6001
0.6001
0.58984
0.56494
0.52002
0.47998
0.4502
0.44482
0.48486
0.47021
0.46484
0.49023
0.5
0.50488
0.49512
0.49512
0.52002
0.53516
0.56494
0.59521
0.5498
0.52002
0.50977
0.52002
0.5
0.4751
0.47021
0.49023
0.47998
0.48486
0.5
0.50488
0.49512
0.51514
0.52979
0.50977
0.52002
0.54004
0.56006
0.56494
0.56006
0.54004
0.54492
0.5752
0.58008
0.54492
0.50488
0.44482
0.43994
0.46484
0.52979
0.5752
0.5498
0.38525
-0.044922
-0.33984
-0.27979
-0.034668
0.30029
0.58496
0.66016
0.62988
0.62012
0.60986
0.62012
0.625
0.58496
0.54004
0.49512
0.51514
0.52002
0.5249
0.52979
0.54004
0.56982
0.5752
0.5249
0.52979
0.5249
0.52002
0.5
0.50488
0.49512
0.49512
0.4751
0.3999
0.37012
0.31494
0.30518
0.33984
0.37012
0.39502
0.41504
0.43994
0.45996
0.49023
0.51514
0.54004
0.53516
0.54492
0.58496
0.60498
0.59521
0.52979
0.49023
0.4502
0.44482
0.46484
0.47998
0.5
0.50977
0.5249
0.5498
0.56006
0.5498
0.58008
0.58984
0.58496
0.60498
0.64502
0.61475
0.58008
0.5249
0.4751
0.47021
0.47021
0.4751
0.49023
0.52002
0.5249
0.51514
0.54004
0.56006
0.52979
0.55518
0.54492
0.5498
0.56494
0.63477
0.71973
0.7251
0.60986
0.31982
-0.14502
-0.32959
-0.20459
0.13525
0.48486
0.66016
0.66504
0.63477
0.60498
0.60498
0.6001
0.60986
0.62988
0.63477
0.60498
0.56982
0.52979
0.49512
0.48486
0.50977
0.51514
0.48486
0.52002
0.54004
0.50488
0.49512
0.5
0.47998
0.45508
0.47998
0.49023
0.52002
0.49023
0.45508
0.43994
0.41504
0.41016
0.43994
0.43506
0.48486
0.51514
0.50977
0.52002
0.50977
0.56006
0.56494
0.5498
0.56006
0.58008
0.58008
0.58984
0.56982
0.50488
0.45508
0.46484
0.50977
0.49512
0.49512
0.50488
0.52979
0.54492
0.56006
0.56494
0.55518
0.56494
0.58496
0.58008
0.54004
0.53516
0.55518
0.5249
0.52979
0.50977
0.50488
0.58496
0.6499
0.6748
0.60498
0.2251
-0.19482
-0.29004
-0.069824
0.30518
0.61475
0.73486
0.68506
0.625
0.6001
0.55518
0.54004
0.53516
0.53516
0.52979
0.54004
0.54492
0.52979
0.58984
0.6001
0.56982
0.58496
0.60498
0.58008
0.5752
0.53516
0.5
0.45508
0.43506
0.44482
0.41016
0.4248
0.41016
0.4248
0.46484
0.47998
0.51514
0.54004
0.50977
0.52979
0.50488
0.49023
0.50488
0.52002
0.49023
0.4751
0.47998
0.47021
0.49023
0.48486
0.51514
0.50488
0.52979
0.54004
0.58008
0.60986
0.58984
0.56982
0.54492
0.50977
0.47998
0.48486
0.5
0.47998
0.47021
0.5
0.50488
0.52002
0.52002
0.53516
0.55518
0.5498
0.5752
0.60986
0.62012
0.56982
0.52979
0.50977
0.49023
0.47998
0.47998
0.49512
0.47021
0.47021
0.48486
0.49023
0.51514
0.5249
0.52002
0.53516
0.61475
0.70508
0.72998
0.63477
0.31494
-0.18994
-0.375
-0.25
0.030273
0.39502
0.6499
0.66992
0.60498
0.58984
0.58984
0.60498
0.58984
0.60986
0.60498
0.64014
0.66016
0.61475
0.54492
0.52002
0.49512
0.47998
0.51514
0.46484
0.47021
0.4502
0.45508
0.45508
0.44482
0.45996
0.4502
0.45996
0.45508
0.46484
0.46484
0.4502
0.4248
0.41992
0.40479
0.44482
0.43994
0.43018
0.48486
0.50488
0.50977
0.53516
0.5752
0.56006
0.58984
0.5752
0.5249
0.49512
0.49023
0.4751
0.49512
0.4751
0.47998
0.4751
0.50488
0.51514
0.47998
0.5249
0.56006
0.56494
0.59521
0.60986
0.60498
0.58984
0.55518
0.5249
0.53516
0.50488
0.49023
0.50488
0.52002
0.52979
0.52002
0.53516
0.5498
0.55518
0.56006
0.58984
0.625
0.68018
0.66992
0.51514
0.095215
-0.2998
-0.35498
-0.125
0.26025
0.5752
0.68018
0.65479
0.60498
0.60986
0.58984
0.6001
0.58984
0.60986
0.6001
0.56494
0.52979
0.51514
0.54004
0.5249
0.52979
0.52002
0.54004
0.52979
0.52002
0.51514
0.5249
0.50488
0.47998
0.45508
0.43994
0.4502
0.43018
0.43506
0.40479
0.41992
0.4248
0.45508
0.48486
0.5
0.52002
0.5498
0.54004
0.5752
0.5498
0.53516
0.52002
0.52979
0.47998
0.4751
0.50977
0.51514
0.5249
0.52979
0.54004
0.55518
0.56494
0.59521
0.62012
0.625
0.60986
0.60986
0.60986
0.62012
0.58984
0.52979
0.48486
0.47021
0.43994
0.44482
0.45996
0.49023
0.50977
0.51514
0.52002
0.54004
0.56494
0.55518
0.56006
0.54004
0.56982
0.6001
0.6001
0.59521
0.60986
0.60498
0.6499
0.60986
0.33496
-0.1499
-0.36475
-0.22998
0.084961
0.43994
0.6748
0.71484
0.66504
0.64502
0.63477
0.64014
0.62988
0.62988
0.6001
0.5498
0.50488
0.51514
0.50488
0.5
0.51514
0.53516
0.52002
0.5249
0.52002
0.52002
0.50488
0.49512
0.47998
0.49023
0.47021
0.4751
0.43018
0.4248
0.3999
0.375
0.39014
0.43018
0.43994
0.43018
0.47021
0.49023
0.5249
0.54004
0.53516
0.56494
0.55518
0.5498
0.58008
0.58496
0.52979
0.54004
0.56982
0.58984
0.5498
0.55518
0.52002
0.49512
0.49023
0.47021
0.47021
0.4751
0.48486
0.47021
0.49023
0.49512
0.50488
0.54004
0.55518
0.54492
0.56494
0.54004
0.55518
0.5498
0.56982
0.58984
0.5752
0.58496
0.56982
0.58008
0.5752
0.53516
0.52002
0.49512
0.49023
0.4502
0.4502
0.46484
0.48486
0.50488
0.48486
0.49512
0.50977
0.50977
0.5249
0.52002
0.54492
0.5498
0.54492
0.54004
0.56006
0.5498
0.54004
0.54004
0.54004
0.54004
0.6001
0.64502
0.66504
0.54492
0.30029
-0.13965
-0.30469
-0.20996
0.060059
0.37988
0.5752
0.6001
0.56982
0.56494
0.55518
0.56982
0.5498
0.54004
0.52979
0.58008
0.625
0.60498
0.60986
0.62988
0.59521
0.6001
0.59521
0.56982
0.51514
0.49023
0.4502
0.41504
0.40479
0.375
0.39502
0.40479
0.37012
0.39014
0.39502
0.41016
0.43018
0.43994
0.49023
0.49512
0.48486
0.52002
0.52979
0.52002
0.55518
0.56982
0.50977
0.46484
0.43994
0.45996
0.47021
0.49023
0.49512
0.50488
0.52002
0.5249
0.51514
0.56494
0.56982
0.54004
0.55518
0.56982
0.56494
0.59521
0.60986
0.5752
0.53516
0.49512
0.5
0.50977
0.49512
0.49512
0.50488
0.51514
0.5
0.53516
0.54004
0.5249
0.53516
0.5498
0.5752
0.66504
0.70508
0.71484
0.56006
0.16016
-0.27979
-0.34961
-0.1499
0.18506
0.5249
0.66992
0.68018
0.62988
0.6001
0.60986
0.625
0.62012
0.62988
0.58008
0.58984
0.60986
0.64014
0.62012
0.61475
0.63477
0.56982
0.5
0.46484
0.4502
0.41504
0.4248
0.3999
0.3999
0.38525
0.40479
0.41016
0.40479
0.43018
0.43994
0.43506
0.48486
0.47998
0.51514
0.53516
0.5498
0.55518
0.5752
0.59521
0.6001
0.51514
0.47021
0.45996
0.44482
0.47998
0.47021
0.5
0.5249
0.52002
0.54492
0.56494
0.56494
0.56494
0.56006
0.55518
0.56982
0.56494
0.59521
0.56982
0.5498
0.50488
0.47021
0.46484
0.47021
0.47998
0.4751
0.51514
0.5498
0.55518
0.54492
0.5498
0.5249
0.52002
0.54004
0.52979
0.60498
0.66504
0.70508
0.70508
0.5
0.030273
-0.31494
-0.32959
0.015137
0.3501
0.58984
0.66504
0.60986
0.58496
0.56982
0.58008
0.56982
0.5752
0.58496
0.5752
0.56982
0.59521
0.58984
0.62988
0.62012
0.6001
0.60986
0.58984
0.60498
0.5752
0.58984
0.54492
0.50488
0.39502
0.35498
0.35986
0.35498
0.39014
0.3999
0.41016
0.43994
0.46484
0.4502
0.47021
0.50977
0.50488
0.51514
0.5249
0.54004
0.53516
0.55518
0.6001
0.60498
0.56982
0.53516
0.48486
0.4502
0.43994
0.46484
0.48486
0.47998
0.50488
0.49023
0.52002
0.52979
0.55518
0.52979
0.54492
0.58008
0.58496
0.6001
0.60986
0.56006
0.53516
0.5
0.46484
0.46484
0.47998
0.46484
0.49023
0.50488
0.53516
0.52002
0.51514
0.63477
0.68018
0.68994
0.47998
0.024902
-0.29004
-0.29492
0.035156
0.39014
0.61475
0.66016
0.58984
0.56494
0.56982
0.5498
0.56494
0.5752
0.58496
0.56982
0.58984
0.60986
0.60986
0.62988
0.64014
0.58008
0.52002
0.49023
0.45996
0.47021
0.45996
0.43506
0.41992
0.3999
0.41992
0.41016
0.43018
0.4248
0.45508
0.47021
0.49512
0.51514
0.5249
0.50977
0.50488
0.51514
0.4502
0.43994
0.48486
0.5
0.50488
0.47998
0.50977
0.52002
0.54492
0.55518
0.5498
0.56006
0.58008
0.58496
0.60986
0.5498
0.50488
0.48486
0.47021
0.49512
0.49023
0.5
0.49023
0.50488
0.50977
0.50488
0.55518
0.56494
0.54004
0.5249
0.5498
0.52979
0.56494
0.56982
0.53516
0.49512
0.49512
0.49023
0.52002
0.50488
0.47998
0.47021
0.50488
0.5498
0.5249
0.5
0.53516
0.52979
0.5249
0.54004
0.53516
0.56006
0.52002
0.51514
0.49512
0.49512
0.49023
0.49512
0.48486
0.5
0.48486
0.46484
0.48486
0.53516
0.5
0.50977
0.5
0.49512
0.51514
0.53516
0.5498
0.54004
0.52002
0.5498
0.62988
0.71484
0.73486
0.58008
0.16504
-0.29004
-0.38477
-0.16992
0.18018
0.48486
0.58984
0.5752
0.58496
0.56982
0.56006
0.55518
0.56494
0.5752
0.5752
0.56982
0.60986
0.60986
0.60986
0.62012
0.625
0.59521
0.52979
0.4502
0.43506
0.3999
0.39502
0.4248
0.3999
0.39502
0.40479
0.40479
0.39502
0.41504
0.43506
0.4751
0.49023
0.47021
0.50488
0.4751
0.4248
0.41992
0.41992
0.43506
0.43018
0.4751
0.49512
0.49023
0.51514
0.56006
0.56006
0.55518
0.58496
0.58008
0.60986
0.6001
0.58984
0.54492
0.51514
0.46484
0.45508
0.4502
0.47021
0.49512
0.53516
0.55518
0.54004
0.56494
0.56494
0.56494
0.5752
0.58496
0.58008
0.62988
0.66992
0.70508
0.68506
0.52979
0.11523
-0.31982
-0.38477
-0.11963
0.28516
0.60498
0.71484
0.68506
0.65479
0.62988
0.60986
0.62988
0.62988
0.64502
0.62988
0.58984
0.5752
0.55518
0.54004
0.52002
0.52002
0.52979
0.51514
0.50977
0.52979
0.52002
0.52979
0.50488
0.5
0.49023
0.52002
0.50977
0.5
0.49512
0.46484
0.43506
0.43018
0.4248
0.45508
0.48486
0.47021
0.48486
0.50488
0.49512
0.53516
0.54492
0.56006
0.55518
0.5498
0.56494
0.5752
0.60498
0.60986
0.50488
0.49512
0.45996
0.47998
0.47021
0.48486
0.49512
0.50977
0.52002
0.5
0.52979
0.56982
0.53516
0.52979
0.55518
0.58984
0.5752
0.54004
0.54004
0.54492
0.51514
0.5
0.47998
0.50977
0.49023
0.47998
0.49512
0.52002
0.5249
0.52002
0.53516
0.54004
0.56494
0.56494
0.58008
0.56494
0.54492
0.49512
0.4502
0.45508
0.48486
0.50488
0.47021
0.4751
0.47021
0.49023
0.54492
0.625
0.65479
0.58984
0.31006
-0.14502
-0.26465
-0.099609
0.18018
0.48486
0.6499
0.62012
0.56982
0.5498
0.54004
0.5498
0.53516
0.52002
0.52979
0.56006
0.59521
0.59521
0.59521
0.58984
0.59521
0.60498
0.58496
0.60498
0.52979
0.50977
0.51514
0.51514
0.50488
0.48486
0.45508
0.43018
0.41016
0.39014
0.3999
0.39502
0.40479
0.4248
0.4248
0.43506
0.43018
0.46484
0.47998
0.49512
0.50977
0.5249
0.52002
0.54004
0.52002
0.54492
0.5249
0.52002
0.52979
0.54004
0.52979
0.50977
0.49512
0.46484
0.48486
0.50488
0.5
0.53516
0.55518
0.5249
0.52002
0.53516
0.56494
0.56494
0.5752
0.58984
0.56982
0.56494
0.62012
0.60498
0.58008
0.5498
0.51514
0.49023
0.48486
0.48486
0.49512
0.47021
0.4751
0.47998
0.50488
0.52002
0.50977
0.53516
0.5
0.5249
0.54004
0.55518
0.53516
0.52002
0.49023
0.45508
0.45996
0.47021
0.47021
0.47021
0.47998
0.49023
0.50488
0.49023
0.49512
0.52002
0.54004
0.56494
0.55518
0.56006
0.50977
0.5498
0.62012
0.60498
0.5249
0.16992
-0.27979
-0.37988
-0.16992
0.125
0.46484
0.66504
0.6748
0.62988
0.62012
0.58496
0.5498
0.54004
0.54492
0.5249
0.54492
0.53516
0.5249
0.52002
0.55518
0.58008
0.56494
0.56982
0.55518
0.5752
0.58496
0.54492
0.50488
0.49512
0.46484
0.43506
0.41016
0.375
0.37012
0.38525
0.39502
0.39014
0.41504
0.44482
0.49023
0.51514
0.53516
0.54492
0.5498
0.54004
0.53516
0.52979
0.55518
0.49512
0.49512
0.52002
0.51514
0.50488
0.5
0.5249
0.52979
0.56006
0.5752
0.58984
0.58984
0.60986
0.6001
0.56494
0.53516
0.50977
0.5
0.49023
0.48486
0.49023
0.5249
0.52002
0.50977
0.56006
0.54492
0.55518
0.58008
0.6001
0.60498
0.6001
0.60986
0.58496
0.54004
0.50977
0.47021
0.44482
0.47021
0.4751
0.50977
0.5249
0.50488
0.53516
0.5498
0.54004
0.56006
0.56982
0.56494
0.59521
0.56006
0.54004
0.58496
0.60986
0.59521
0.41016
0.0048828
-0.27002
-0.30469
0.030273
0.3501
0.60986
0.66504
0.64014
0.625
0.62988
0.62012
0.58984
0.58496
0.56494
0.56494
0.52002
0.5249
0.56006
0.53516
0.52979
0.5498
0.54004
0.5498
0.53516
0.54492
0.56006
0.50488
0.47998
0.43018
0.40479
0.38525
0.39502
0.41992
0.44482
0.41992
0.47021
0.47998
0.5
0.50977
0.5
0.53516
0.56006
0.55518
0.56494
0.54004
0.5
0.4751
0.46484
0.44482
0.4502
0.47021
0.46484
0.47998
0.50488
0.52002
0.53516
0.53516
0.5498
0.56006
0.51514
0.52002
0.52979
0.52979
0.53516
0.52979
0.5498
0.53516
0.51514
0.52979
0.56494
0.53516
0.5498
0.56006
0.54004
0.53516
0.51514
0.50977
0.5249
0.54492
0.51514
0.53516
0.54004
0.5498
0.52979
0.50488
0.49512
0.5
0.52002
0.49512
0.5
0.5249
0.5498
0.53516
0.52002
0.5
0.50488
0.52979
0.50488
0.49512
0.54004
0.51514
0.52979
0.60986
0.66504
0.62012
0.3999
-0.069824
-0.28467
-0.19482
0.015137
0.35986
0.6001
0.625
0.58496
0.56494
0.56494
0.56494
0.56494
0.56006
0.58496
0.5752
0.56494
0.59521
0.58984
0.6001
0.56982
0.58496
0.5498
0.54004
0.50977
0.48486
0.47021
0.46484
0.44482
0.43506
0.41992
0.3999
0.4248
0.4248
0.3999
0.41992
0.43994
0.4248
0.4751
0.49023
0.47021
0.52979
0.5249
0.51514
0.50488
0.5249
0.49512
0.49023
0.48486
0.49023
0.50488
0.51514
0.5
0.53516
0.54492
0.56006
0.53516
0.5249
0.52002
0.53516
0.5249
0.54492
0.5249
0.51514
0.53516
0.5249
0.54492
0.56006
0.54492
0.54004
0.52979
0.56006
0.56494
0.54004
0.54004
0.5249
0.50977
0.5
0.49512
0.49023
0.50977
0.50488
0.5249
0.52002
0.5498
0.53516
0.52002
0.53516
0.52002
0.54492
0.5498
0.50977
0.59521
0.6748
0.68018
0.47021
0.055176
-0.2749
-0.31982
-0.084961
0.26514
0.58496
0.7002
0.66016
0.62988
0.62012
0.58008
0.5752
0.58496
0.58984
0.5498
0.58008
0.55518
0.54492
0.53516
0.52979
0.5498
0.53516
0.55518
0.49512
0.5
0.51514
0.4751
0.45996
0.46484
0.43506
0.43994
0.41016
0.41016
0.4248
0.41504
0.40479
0.4248
0.44482
0.44482
0.45996
0.5
0.51514
0.52002
0.52979
0.54004
0.54492
0.52002
0.54004
0.55518
0.52002
0.52002
0.52979
0.52002
0.5249
0.53516
0.54492
0.56006
0.56494
0.5752
0.56494
0.52979
0.54004
0.50488
0.52979
0.55518
0.56006
0.50488
0.50488
0.52002
0.50977
0.50977
0.52979
0.53516
0.56006
0.58008
0.56494
0.54492
0.56494
0.56006
0.56982
0.5498
0.56494
0.54004
0.54492
0.5498
0.5249
0.5
0.49512
0.50977
0.49512
0.48486
0.49512
0.49023
0.52002
0.52002
0.50977
0.54004
0.52979
0.5249
0.54004
0.54492
0.56494
0.5249
0.49512
0.50488
0.47998
0.47998
0.47998
0.47021
0.48486
0.49512
0.5249
0.53516
0.54004
0.53516
0.5498
0.5249
0.51514
0.56006
0.625
0.63477
0.50488
0.17529
-0.21484
-0.2998
-0.12988
0.18994
0.49023
0.64014
0.62988
0.60498
0.60498
0.59521
0.5752
0.58008
0.54492
0.54004
0.56006
0.52002
0.53516
0.5498
0.56982
0.56006
0.55518
0.55518
0.54492
0.5249
0.49023
0.4751
0.46484
0.47021
0.43018
0.3999
0.375
0.375
0.36523
0.39014
0.3999
0.41504
0.43994
0.46484
0.47998
0.45508
0.49023
0.48486
0.51514
0.52002
0.51514
0.5249
0.51514
0.5249
0.5249
0.50488
0.54004
0.52979
0.51514
0.49512
0.50488
0.52002
0.5
0.50977
0.52002
0.54004
0.50977
0.5498
0.53516
0.5249
0.54004
0.54492
0.54004
0.53516
0.5498
0.52002
0.54004
0.51514
0.54492
0.5498
0.54004
0.52979
0.55518
0.56982
0.5752
0.56982
0.58984
0.54004
0.5498
0.5249
0.48486
0.47021
0.46484
0.48486
0.50488
0.50488
0.50977
0.5249
0.55518
0.54492
0.55518
0.56494
0.60986
0.66016
0.625
0.5249
0.18018
-0.27002
-0.34961
-0.16504
0.16504
0.5
0.68506
0.64014
0.58984
0.5752
0.6001
0.58496
0.58496
0.58984
0.5752
0.5498
0.56982
0.54004
0.52002
0.5249
0.54004
0.54492
0.54492
0.54004
0.52002
0.5249
0.50977
0.49023
0.44482
0.43506
0.41016
0.3999
0.40479
0.39014
0.38525
0.38525
0.41016
0.44482
0.47021
0.47021
0.49512
0.50977
0.5
0.5249
0.54004
0.54004
0.5498
0.54004
0.5249
0.53516
0.49512
0.52002
0.54492
0.53516
0.5
0.50977
0.52002
0.53516
0.5249
0.53516
0.54492
0.56982
0.55518
0.53516
0.54004
0.52002
0.54492
0.52002
0.52002
0.51514
0.52002
0.5249
0.54004
0.54004
0.5498
0.56006
0.58984
0.56006
0.56494
0.56006
0.52979
0.49023
0.50977
0.50977
0.5
0.52002
0.5249
0.52002
0.5249
0.53516
0.54004
0.5249
0.52979
0.54004
0.5249
0.54004
0.52979
0.53516
0.52002
0.52002
0.52979
0.52002
0.52002
0.51514
0.52002
0.5249
0.52002
0.52979
0.54004
0.51514
0.50488
0.49512
0.52002
0.54004
0.52002
0.50488
0.5498
0.52002
0.50977
0.54004
0.52979
0.52002
0.58008
0.65479
0.66016
0.53516
0.16016
-0.28467
-0.35986
-0.13965
0.18994
0.47998
0.65479
0.63477
0.6001
0.59521
0.625
0.63477
0.61475
0.62012
0.60498
0.56982
0.53516
0.5498
0.52979
0.54492
0.56006
0.5498
0.5249
0.53516
0.51514
0.49512
0.5
0.48486
0.50977
0.47021
0.46484
0.47021
0.43506
0.41016
0.43018
0.41016
0.43018
0.44482
0.46484
0.47998
0.4751
0.49512
0.5
0.5249
0.52979
0.54004
0.54492
0.54492
0.5498
0.54004
0.52002
0.50488
0.5
0.48486
0.50977
0.52002
0.52979
0.51514
0.54004
0.54004
0.5498
0.5498
0.54004
0.52002
0.52002
0.54004
0.56006
0.54492
0.51514
0.5249
0.52979
0.52002
0.52979
0.52002
0.53516
0.56494
0.54004
0.55518
0.56494
0.54492
0.5498
0.5249
0.50977
0.51514
0.5
0.48486
0.47021
0.49512
0.49512
0.5
0.51514
0.53516
0.54492
0.5498
0.55518
0.56006
0.54004
0.5249
0.5249
0.54004
0.51514
0.5
0.56982
0.61475
0.59521
0.375
-0.060059
-0.31494
-0.25
-0.0048828
0.31982
0.59521
0.66016
0.62012
0.61475
0.64014
0.62988
0.59521
0.58496
0.60498
0.63477
0.60986
0.60986
0.59521
0.5498
0.49023
0.47021
0.48486
0.4751
0.49023
0.47021
0.48486
0.49023
0.47998
0.43994
0.43018
0.44482
0.45508
0.4502
0.47021
0.46484
0.48486
0.49512
0.51514
0.53516
0.52002
0.47021
0.43994
0.43506
0.44482
0.43994
0.45996
0.46484
0.45996
0.50977
0.51514
0.52979
0.5249
0.56006
0.5498
0.55518
0.56494
0.58008
0.55518
0.56006
0.56494
0.5752
0.58496
0.60498
0.58496
0.5498
0.47998
0.47021
0.48486
0.4751
0.49512
0.49023
0.51514
0.50488
0.50488
0.52002
0.51514
0.53516
0.51514
0.5249
0.53516
0.56006
0.58984
0.56982
0.58008
0.51514
0.47021
0.45508
0.4502
0.49512
0.48486
0.49512
0.50977
0.52002
0.52979
0.52002
0.54004
0.52002
0.52979
0.54004
0.59521
0.58496
0.58984
0.52979
0.4751
0.44482
0.45508
0.45996
0.43506
0.47021
0.47021
0.5
0.50977
0.49512
0.50977
0.50488
0.52002
0.5249
0.52002
0.56006
0.56494
0.54492
0.52979
0.58984
0.59521
0.52979
0.24023
-0.22461
-0.375
-0.23486
0.084961
0.43506
0.63477
0.66016
0.62012
0.63477
0.63477
0.65479
0.66504
0.66504
0.6001
0.5249
0.49512
0.47998
0.50488
0.53516
0.50977
0.5249
0.52002
0.53516
0.50977
0.51514
0.50977
0.47021
0.47021
0.47998
0.46484
0.47998
0.49512
0.50977
0.51514
0.4502
0.3999
0.375
0.41992
0.4248
0.4248
0.43018
0.47021
0.48486
0.5249
0.52979
0.52002
0.56006
0.55518
0.5752
0.58984
0.54492
0.56494
0.58984
0.6001
0.63477
0.61475
0.59521
0.51514
0.47021
0.4751
0.49023
0.49512
0.47998
0.5
0.50488
0.50977
0.54492
0.54492
0.52979
0.56982
0.56006
0.5498
0.56494
0.58496
0.59521
0.6001
0.5498
0.50488
0.5
0.50488
0.52002
0.49512
0.49512
0.5
0.52002
0.54492
0.55518
0.54004
0.55518
0.5498
0.5498
0.58984
0.7002
0.72998
0.66992
0.4502
-0.034668
-0.30957
-0.31982
0.010254
0.33984
0.5752
0.60986
0.5752
0.56982
0.58496
0.56006
0.59521
0.6001
0.55518
0.56982
0.58984
0.56494
0.59521
0.60498
0.58984
0.60986
0.60498
0.60986
0.55518
0.49023
0.43018
0.39014
0.38525
0.39502
0.38525
0.40479
0.38525
0.41992
0.43018
0.4502
0.46484
0.47021
0.49512
0.50977
0.50488
0.53516
0.54004
0.53516
0.56006
0.58984
0.58008
0.58496
0.54492
0.47021
0.43506
0.4248
0.44482
0.43018
0.45508
0.47021
0.45996
0.49512
0.4751
0.5
0.52002
0.52002
0.54004
0.54004
0.56982
0.59521
0.58984
0.5752
0.54004
0.50488
0.47021
0.45508
0.44482
0.4751
0.51514
0.5498
0.65479
0.69482
0.60498
0.22998
-0.18506
-0.24463
-0.074707
0.2749
0.58496
0.72998
0.71484
0.66016
0.58008
0.53516
0.52002
0.52979
0.5249
0.52979
0.52002
0.52979
0.54004
0.53516
0.55518
0.52979
0.54492
0.5498
0.54492
0.52979
0.52002
0.52979
0.49512
0.47021
0.47998
0.47998
0.49023
0.51514
0.54004
0.52002
0.43506
0.39014
0.38525
0.375
0.38525
0.41016
0.4751
0.47998
0.47998
0.50488
0.54004
0.5498
0.52002
0.54004
0.54492
0.52979
0.54004
0.56494
0.5498
0.50488
0.45996
0.375
0.2251
0.16992
0.21484
0.28516
0.29004
0.10986
-0.31494
-0.49951
-0.49951
-0.49951
-0.49951
-0.375
0.15527
0.56006
0.75488
0.84473
0.86475
0.90967
0.93506
0.93994
0.96484
0.96973
0.98975
1
0.98486
0.94971
0.91504
0.90479
0.95996
0.98975
1.0146
1.0649
1.085
1.0801
1.0801
1.0547
1.04
1.0049
0.95508
0.875
0.85986
0.79492
0.68506
0.58008
0.50977
0.48486
0.47998
0.45996
0.45996
0.46484
0.4751
0.47021
0.4751
0.49512
0.48486
0.49512
0.5
0.49512
0.5249
0.51514
0.45996
0.41504
0.3999
0.37988
0.39014
0.41992
0.43506
0.45996
0.48486
0.47998
0.48486
0.47998
0.51514
0.52002
0.50977
0.52002
0.52002
0.53516
0.5
0.44482
0.43506
0.41016
0.40479
0.43018
0.44482
0.4502
0.47021
0.47998
0.49023
0.50977
0.50977
0.51514
0.49512
0.51514
0.5498
0.53516
0.53516
0.51514
0.46484
0.44482
0.44482
0.43994
0.45508
0.46484
0.4751
0.50977
0.47021
0.47021
0.52979
0.61475
0.65479
0.60498
0.39502
-0.094727
-0.33984
-0.27979
-0.014648
0.29004
0.54004
0.62988
0.5752
0.54492
0.5498
0.56494
0.58984
0.58496
0.61475
0.60498
0.60498
0.625
0.63477
0.5752
0.54004
0.51514
0.48486
0.5
0.47021
0.45508
0.46484
0.41992
0.41016
0.4248
0.40479
0.41504
0.4248
0.41992
0.44482
0.45996
0.44482
0.43018
0.41016
0.38525
0.41992
0.43994
0.43994
0.4502
0.4751
0.50977
0.5
0.52002
0.53516
0.55518
0.5498
0.56494
0.58008
0.56982
0.5752
0.54004
0.49512
0.45508
0.46484
0.46484
0.45996
0.49023
0.50488
0.50977
0.49512
0.52002
0.54492
0.5752
0.6001
0.56494
0.58008
0.58496
0.56494
0.53516
0.52002
0.50488
0.47998
0.49023
0.50977
0.50488
0.49023
0.50488
0.52979
0.6001
0.70996
0.76514
0.71973
0.41504
-0.10498
-0.35986
-0.23975
0.070313
0.41016
0.64502
0.68018
0.61475
0.58008
0.58496
0.56006
0.56982
0.60498
0.60986
0.62012
0.60498
0.60986
0.58984
0.56494
0.54492
0.5249
0.54492
0.5
0.47998
0.49023
0.5
0.45508
0.44482
0.46484
0.47021
0.4751
0.45508
0.47998
0.5
0.50977
0.4502
0.3999
0.43018
0.4502
0.45508
0.43994
0.44482
0.46484
0.48486
0.5
0.52002
0.53516
0.54004
0.54492
0.56006
0.54004
0.55518
0.54004
0.5
0.49512
0.48486
0.49512
0.50977
0.52002
0.51514
0.50977
0.52002
0.52002
0.55518
0.5498
0.5752
0.56982
0.58008
0.55518
0.54492
0.54004
0.54004
0.51514
0.50977
0.5249
0.52002
0.58496
0.68018
0.7002
0.62988
0.31982
-0.15479
-0.29492
-0.125
0.18994
0.54492
0.75
0.75488
0.6001
0.56006
0.54004
0.53516
0.55518
0.51514
0.52979
0.56006
0.56494
0.56494
0.58008
0.58984
0.58496
0.58984
0.58008
0.56494
0.55518
0.52979
0.4751
0.45508
0.43506
0.43994
0.4248
0.41992
0.41016
0.41992
0.43506
0.45996
0.47021
0.50488
0.5
0.50488
0.47998
0.4751
0.49023
0.50977
0.51514
0.48486
0.48486
0.5
0.5
0.49023
0.5
0.49023
0.51514
0.53516
0.54004
0.52979
0.54004
0.50977
0.5
0.4751
0.49023
0.51514
0.52002
0.54492
0.55518
0.52979
0.56494
0.56982
0.56494
0.58984
0.54492
0.54004
0.5752
0.54004
0.53516
0.54004
0.50488
0.5
0.52002
0.50488
0.52002
0.50977
0.52002
0.54492
0.54004
0.55518
0.5498
0.54004
0.53516
0.50488
0.47998
0.49023
0.5
0.49023
0.53516
0.625
0.6499
0.56494
0.23486
-0.19971
-0.29492
-0.089844
0.21484
0.50977
0.7002
0.70508
0.625
0.5752
0.56494
0.54004
0.54492
0.54004
0.56494
0.58496
0.59521
0.60986
0.6001
0.56982
0.56006
0.55518
0.53516
0.52002
0.5
0.48486
0.4751
0.4502
0.46484
0.47021
0.47021
0.46484
0.49512
0.49023
0.49512
0.47021
0.4751
0.47998
0.4248
0.41992
0.41504
0.4248
0.46484
0.49512
0.5
0.52979
0.54004
0.54492
0.52002
0.55518
0.56006
0.5498
0.54492
0.56494
0.55518
0.56006
0.5249
0.50977
0.52002
0.4751
0.47021
0.52002
0.52002
0.52002
0.52979
0.55518
0.56982
0.56006
0.56006
0.56494
0.54004
0.53516
0.5
0.51514
0.54004
0.56006
0.52002
0.51514
0.52002
0.54492
0.54492
0.55518
0.5498
0.54492
0.56006
0.5498
0.54492
0.60986
0.66504
0.63477
0.52002
0.17529
-0.22461
-0.33496
-0.15967
0.16504
0.50977
0.68994
0.69482
0.61475
0.60986
0.6001
0.6001
0.61475
0.58008
0.5752
0.58984
0.55518
0.5249
0.50488
0.5
0.51514
0.52002
0.50977
0.53516
0.54492
0.5249
0.52002
0.52979
0.48486
0.50488
0.46484
0.44482
0.4248
0.41016
0.3999
0.4248
0.46484
0.47021
0.45508
0.5
0.50977
0.5
0.53516
0.54004
0.54004
0.5498
0.56494
0.54004
0.51514
0.47021
0.46484
0.46484
0.47021
0.47021
0.5
0.54004
0.54492
0.54004
0.56006
0.56494
0.5752
0.58008
0.5752
0.56006
0.58984
0.55518
0.50488
0.49023
0.49512
0.48486
0.49023
0.49512
0.51514
0.52979
0.54004
0.5249
0.54004
0.54004
0.55518
0.54492
0.56006
0.58984
0.56494
0.54492
0.53516
0.5
0.47998
0.49512
0.5
0.49512
0.50488
0.49512
0.51514
0.51514
0.54004
0.53516
0.52979
0.53516
0.5249
0.54004
0.53516
0.50488
0.49512
0.47998
0.48486
0.50488
0.50488
0.50977
0.5
0.50977
0.5
0.50488
0.52979
0.54004
0.50488
0.51514
0.5752
0.55518
0.52002
0.50488
0.56006
0.625
0.59521
0.4502
0.035156
-0.31494
-0.35498
-0.094727
0.25
0.56982
0.6748
0.62988
0.58496
0.58984
0.5752
0.56494
0.56982
0.56494
0.5752
0.58008
0.56006
0.5498
0.5752
0.58008
0.56494
0.58008
0.5498
0.5249
0.53516
0.52002
0.5249
0.43994
0.41016
0.39502
0.37012
0.37988
0.39014
0.35986
0.37012
0.40479
0.4248
0.4248
0.4502
0.4751
0.50488
0.50977
0.52002
0.5498
0.54004
0.56006
0.53516
0.50977
0.46484
0.44482
0.43018
0.45508
0.47021
0.50488
0.51514
0.54004
0.56494
0.54492
0.54004
0.5752
0.58496
0.60498
0.60986
0.58984
0.56494
0.52979
0.50977
0.52002
0.52002
0.52002
0.5498
0.54492
0.54004
0.58008
0.56006
0.56494
0.56494
0.56494
0.56982
0.54004
0.53516
0.5498
0.52002
0.5
0.52002
0.51514
0.5249
0.54004
0.5498
0.58496
0.56006
0.54004
0.54492
0.55518
0.54004
0.5249
0.52002
0.53516
0.52979
0.50488
0.5
0.49512
0.47998
0.5
0.49512
0.54004
0.6001
0.66992
0.62988
0.41992
-0.0097656
-0.27979
-0.29004
0.030273
0.31982
0.63477
0.7002
0.62988
0.58496
0.56494
0.56006
0.60986
0.61475
0.56982
0.56494
0.56006
0.56494
0.58496
0.56006
0.54492
0.5498
0.52979
0.52002
0.52002
0.52002
0.5
0.49023
0.46484
0.45508
0.43018
0.41504
0.3999
0.41016
0.41992
0.4248
0.43506
0.41504
0.43506
0.44482
0.47998
0.50977
0.5
0.5
0.50488
0.50488
0.52002
0.53516
0.54004
0.49512
0.49512
0.5
0.49512
0.50977
0.52002
0.5249
0.52002
0.54004
0.5498
0.56006
0.53516
0.52002
0.52979
0.52002
0.52002
0.49023
0.5249
0.52002
0.53516
0.50977
0.52002
0.5
0.54004
0.54492
0.5498
0.54004
0.56006
0.53516
0.54004
0.51514
0.47998
0.47021
0.48486
0.50488
0.52002
0.5498
0.6499
0.68018
0.62012
0.34521
-0.094727
-0.29492
-0.1499
0.16016
0.46484
0.6499
0.66992
0.60498
0.5752
0.54004
0.54004
0.5498
0.54004
0.5498
0.56494
0.5752
0.56494
0.5752
0.56006
0.55518
0.54004
0.55518
0.54004
0.52002
0.52002
0.49512
0.47998
0.47998
0.45508
0.44482
0.44482
0.45996
0.46484
0.43506
0.41992
0.3999
0.41504
0.43018
0.44482
0.45996
0.46484
0.50977
0.5
0.53516
0.54004
0.55518
0.53516
0.54004
0.54492
0.52002
0.51514
0.54004
0.50488
0.4751
0.5
0.49023
0.48486
0.51514
0.52979
0.54492
0.53516
0.54004
0.54492
0.56006
0.56494
0.5249
0.50488
0.50977
0.50977
0.51514
0.49512
0.51514
0.5249
0.53516
0.54492
0.5249
0.54004
0.55518
0.56494
0.56006
0.54492
0.52979
0.49023
0.47998
0.4751
0.47998
0.5498
0.64502
0.68018
0.62012
0.31494
-0.13965
-0.27979
-0.12988
0.16992
0.48486
0.68506
0.70508
0.625
0.56494
0.54004
0.5249
0.51514
0.54492
0.56006
0.58008
0.60986
0.62988
0.59521
0.59521
0.58008
0.5752
0.5752
0.55518
0.5249
0.4751
0.44482
0.43506
0.39502
0.38525
0.39502
0.38525
0.39014
0.41504
0.43506
0.43018
0.45996
0.47021
0.45996
0.51514
0.52002
0.52979
0.5
0.5249
0.51514
0.5249
0.52002
0.50488
0.5
0.52002
0.51514
0.5249
0.54004
0.53516
0.56494
0.58008
0.56006
0.52979
0.48486
0.50488
0.50977
0.50488
0.54004
0.5498
0.55518
0.54004
0.56006
0.56982
0.56494
0.56494
0.59521
0.5752
0.54004
0.50488
0.49512
0.51514
0.52002
0.54004
0.54004
0.54492
0.54004
0.55518
0.54492
0.56006
0.55518
0.58008
0.5249
0.5
0.49512
0.50977
0.49023
0.48486
0.52979
0.625
0.66992
0.62988
0.3501
-0.125
-0.28467
-0.1499
0.14502
0.43506
0.6499
0.66504
0.60986
0.60498
0.61475
0.60986
0.58496
0.56494
0.56494
0.56982
0.5752
0.56982
0.60498
0.56982
0.55518
0.56494
0.53516
0.52002
0.51514
0.49023
0.47021
0.45508
0.45508
0.47998
0.46484
0.45996
0.49512
0.49512
0.43994
0.44482
0.45508
0.46484
0.47021
0.49512
0.4751
0.47021
0.49023
0.5
0.47021
0.49023
0.51514
0.52002
0.5249
0.56006
0.56982
0.52002
0.51514
0.54004
0.52002
0.53516
0.51514
0.49512
0.5
0.49512
0.51514
0.53516
0.52002
0.50977
0.52002
0.53516
0.56982
0.58008
0.58008
0.55518
0.54004
0.52979
0.52002
0.52979
0.5249
0.53516
0.52002
0.52002
0.52979
0.56006
0.56982
0.55518
0.5498
0.56006
0.5498
0.56494
0.54004
0.5249
0.49023
0.44482
0.44482
0.47021
0.47021
0.47998
0.49512
0.5
0.49023
0.52002
0.52002
0.52002
0.54492
0.5498
0.52002
0.53516
0.50977
0.5249
0.53516
0.51514
0.5
0.56982
0.61475
0.59521
0.41016
-0.0097656
-0.29004
-0.2998
-0.0097656
0.31982
0.60498
0.66992
0.62012
0.56494
0.54492
0.56494
0.5752
0.5498
0.54004
0.54004
0.54492
0.5498
0.56494
0.5498
0.54492
0.56494
0.54004
0.54492
0.56006
0.56982
0.54004
0.49023
0.4502
0.3999
0.41992
0.4248
0.37988
0.375
0.40479
0.41504
0.4248
0.41504
0.4502
0.47021
0.4751
0.47021
0.47998
0.52002
0.54004
0.50977
0.49512
0.50977
0.51514
0.5
0.52002
0.5249
0.50488
0.52979
0.54492
0.54004
0.54004
0.54004
0.52002
0.52002
0.53516
0.55518
0.54004
0.53516
0.54004
0.53516
0.52002
0.53516
0.52979
0.54004
0.52979
0.54004
0.54004
0.53516
0.52979
0.52002
0.52002
0.51514
0.52002
0.52979
0.54004
0.54492
0.52979
0.5498
0.66016
0.71973
0.6748
0.43506
-0.054688
-0.30957
-0.23975
0.010254
0.37988
0.65479
0.70508
0.63477
0.56982
0.56494
0.58496
0.5752
0.56982
0.5752
0.5498
0.56494
0.54004
0.54492
0.56494
0.56494
0.58008
0.56006
0.53516
0.52002
0.52002
0.50488
0.47998
0.45996
0.45508
0.41992
0.41016
0.39014
0.37988
0.41504
0.43018
0.4248
0.46484
0.49512
0.50488
0.51514
0.52002
0.54004
0.54492
0.52002
0.5249
0.52002
0.52979
0.49023
0.48486
0.47998
0.51514
0.52979
0.52002
0.54492
0.58496
0.56494
0.58008
0.56982
0.5498
0.54004
0.56006
0.54004
0.50977
0.49023
0.49512
0.48486
0.49512
0.50488
0.52002
0.5498
0.56006
0.5752
0.56006
0.56982
0.5752
0.56982
0.56982
0.56006
0.6001
0.65479
0.66504
0.52979
0.18506
-0.27002
-0.36475
-0.14502
0.22021
0.54004
0.70508
0.71484
0.68994
0.6748
0.65479
0.62988
0.62012
0.60498
0.58496
0.56494
0.53516
0.54004
0.51514
0.52002
0.54004
0.52979
0.52979
0.54004
0.54004
0.5498
0.51514
0.51514
0.5
0.51514
0.49512
0.48486
0.47021
0.45508
0.44482
0.43506
0.39502
0.39014
0.41992
0.44482
0.47998
0.49023
0.47021
0.50977
0.53516
0.54492
0.55518
0.56006
0.52979
0.56982
0.56006
0.52979
0.49023
0.47998
0.49512
0.49023
0.51514
0.51514
0.54004
0.54004
0.54492
0.56006
0.53516
0.53516
0.52002
0.56006
0.54004
0.5498
0.55518
0.54004
0.54492
0.51514
0.49512
0.5
0.49512
0.50488
0.52002
0.5249
0.52002
0.52002
0.51514
0.54004
0.56006
0.60986
0.69482
0.70996
0.62012
0.31494
-0.16992
-0.34473
-0.19482
0.10986
0.45508
0.65479
0.6748
0.6001
0.58008
0.58984
0.58008
0.56494
0.56982
0.56494
0.6001
0.6001
0.60986
0.60498
0.60986
0.60498
0.60986
0.62012
0.60498
0.58984
0.50488
0.44482
0.4248
0.43506
0.37988
0.39014
0.375
0.375
0.39502
0.41504
0.41016
0.4502
0.45508
0.4502
0.49023
0.49512
0.49512
0.50977
0.52979
0.56494
0.58008
0.54492
0.4751
0.47021
0.48486
0.49512
0.50488
0.51514
0.5
0.50488
0.51514
0.5249
0.56006
0.54492
0.54492
0.53516
0.55518
0.56006
0.56494
0.58496
0.59521
0.56494
0.5752
0.5752
0.59521
0.62012
0.58984
0.5498
0.49512
0.47021
0.4751
0.46484
0.50488
0.5752
0.64502
0.64014
0.49512
0.080078
-0.28467
-0.32471
-0.064941
0.30029
0.62012
0.72998
0.6499
0.56494
0.54004
0.54004
0.56494
0.5752
0.56494
0.54004
0.55518
0.5752
0.58496
0.58984
0.58496
0.60986
0.58496
0.5752
0.56006
0.54492
0.54004
0.51514
0.49023
0.47021
0.46484
0.47021
0.46484
0.41992
0.35498
0.34521
0.33984
0.375
0.41992
0.45508
0.47021
0.47998
0.52002
0.50977
0.52002
0.5249
0.52979
0.55518
0.5498
0.58008
0.56006
0.54492
0.5249
0.49512
0.47021
0.4751
0.49023
0.5
0.5249
0.5498
0.52979
0.56006
0.54004
0.55518
0.56982
0.58496
0.58008
0.60986
0.58008
0.5498
0.5
0.45508
0.4502
0.46484
0.45508
0.47021
0.49023
0.50488
0.5249
0.52979
0.54004
0.52979
0.55518
0.5752
0.59521
0.60498
0.625
0.6499
0.68506
0.65479
0.5498
0.23486
-0.24463
-0.39502
-0.21484
0.10498
0.4502
0.66992
0.68506
0.6499
0.64014
0.68018
0.68018
0.65479
0.60986
0.58496
0.58008
0.54492
0.5
0.49512
0.52002
0.49512
0.5
0.52002
0.53516
0.5498
0.5249
0.52979
0.51514
0.52979
0.54004
0.5498
0.5249
0.47998
0.43018
0.39502
0.39502
0.3999
0.4248
0.46484
0.44482
0.46484
0.49512
0.52002
0.52002
0.5498
0.56494
0.59521
0.62012
0.59521
0.56006
0.51514
0.49023
0.47998
0.49023
0.44482
0.47021
0.47021
0.50488
0.54004
0.54004
0.5498
0.56494
0.59521
0.60986
0.60498
0.60986
0.58496
0.55518
0.56494
0.50488
0.47021
0.47998
0.4751
0.49023
0.50488
0.52002
0.53516
0.54492
0.55518
0.5752
0.58984
0.60986
0.58984
0.5498
0.51514
0.49023
0.47998
0.4751
0.48486
0.4751
0.52979
0.60986
0.64502
0.56982
0.22998
-0.18994
-0.29004
-0.074707
0.2749
0.58008
0.75
0.68018
0.60498
0.54492
0.53516
0.52002
0.50977
0.50977
0.50488
0.53516
0.55518
0.5752
0.56982
0.58984
0.56982
0.6001
0.60986
0.58984
0.54492
0.50488
0.48486
0.4502
0.41504
0.3999
0.40479
0.3999
0.4248
0.41016
0.4248
0.47021
0.45508
0.4751
0.51514
0.52002
0.54492
0.56982
0.55518
0.49023
0.4502
0.45996
0.47021
0.50977
0.49023
0.48486
0.49512
0.51514
0.50977
0.50977
0.5249
0.5498
0.56494
0.56494
0.54492
0.54492
0.53516
0.5498
0.56006
0.54492
0.52002
0.52002
0.5249
0.52979
0.54004
0.53516
0.56494
0.54492
0.5498
0.53516
0.54492
0.54004
0.5
0.49023
0.51514
0.5
0.49512
0.50488
0.52979
0.53516
0.51514
0.5
0.53516
0.54004
0.56982
0.64502
0.70508
0.6748
0.49023
0.015137
-0.29492
-0.32471
-0.080078
0.28516
0.58496
0.6499
0.62988
0.58008
0.54004
0.56006
0.55518
0.5752
0.58496
0.56982
0.59521
0.56982
0.54004
0.54492
0.5498
0.52002
0.50977
0.53516
0.51514
0.5
0.52002
0.50488
0.47021
0.4751
0.47021
0.46484
0.4751
0.4502
0.44482
0.43506
0.3999
0.37988
0.39502
0.3999
0.45508
0.45996
0.45508
0.45996
0.49023
0.52002
0.5249
0.54492
0.5498
0.54004
0.58984
0.56494
0.54492
0.54004
0.51514
0.48486
0.49512
0.50488
0.5
0.50977
0.5249
0.54004
0.56006
0.58008
0.5498
0.54004
0.56006
0.54004
0.52002
0.5498
0.53516
0.52979
0.54004
0.52979
0.50977
0.49512
0.49512
0.52002
0.5249
0.52002
0.53516
0.5249
0.52002
0.52002
0.52002
0.58008
0.68994
0.71484
0.60986
0.31982
-0.125
-0.2749
-0.125
0.18506
0.52002
0.69482
0.65479
0.59521
0.54004
0.5498
0.56494
0.56494
0.56006
0.56494
0.56494
0.58496
0.58984
0.58496
0.6001
0.60498
0.5498
0.56006
0.56494
0.53516
0.48486
0.43994
0.43506
0.43994
0.43018
0.44482
0.44482
0.47021
0.45508
0.4751
0.47998
0.45508
0.45996
0.49512
0.51514
0.50488
0.49512
0.51514
0.5
0.49512
0.5
0.50488
0.51514
0.56982
0.58008
0.56494
0.5752
0.56982
0.54492
0.56006
0.52002
0.5249
0.50977
0.5
0.49512
0.51514
0.54492
0.56494
0.54492
0.55518
0.56982
0.5752
0.55518
0.5752
0.56494
0.56982
0.5
0.50977
0.5
0.48486
0.50977
0.52979
0.52979
0.5249
0.53516
0.5498
0.55518
0.56494
0.54004
0.53516
0.56494
0.5498
0.5249
0.49023
0.49023
0.49512
0.5
0.50977
0.50488
0.51514
0.49512
0.49023
0.50488
0.5249
0.62012
0.71484
0.66992
0.47021
0.044922
-0.28467
-0.31494
-0.040039
0.31494
0.55518
0.625
0.59521
0.58984
0.59521
0.5752
0.59521
0.56494
0.55518
0.5498
0.52979
0.5249
0.52002
0.54492
0.54492
0.55518
0.56494
0.54004
0.5498
0.56494
0.51514
0.5
0.48486
0.49023
0.46484
0.45508
0.43994
0.3999
0.3999
0.37012
0.37988
0.41504
0.44482
0.45508
0.43994
0.49512
0.50977
0.52979
0.52002
0.56006
0.56982
0.50977
0.49512
0.51514
0.49512
0.49512
0.52002
0.5249
0.52979
0.52979
0.54492
0.55518
0.53516
0.54004
0.56982
0.5498
0.53516
0.5249
0.5
0.49023
0.48486
0.50488
0.5249
0.53516
0.54004
0.54492
0.54004
0.54004
0.55518
0.56006
0.54492
0.61475
0.68018
0.68994
0.60498
0.24023
-0.24463
-0.35498
-0.15479
0.19531
0.54492
0.73486
0.69482
0.62988
0.60986
0.60986
0.625
0.60986
0.58008
0.5752
0.58496
0.52979
0.50488
0.51514
0.52002
0.52002
0.52002
0.54004
0.52979
0.54492
0.54004
0.5249
0.49512
0.45996
0.44482
0.43506
0.44482
0.45508
0.43994
0.4248
0.4248
0.43506
0.4502
0.48486
0.52979
0.54004
0.51514
0.49023
0.48486
0.5
0.52002
0.52002
0.5249
0.52002
0.5249
0.50488
0.50977
0.50488
0.54004
0.51514
0.50488
0.5498
0.53516
0.52002
0.5
0.51514
0.52979
0.52002
0.52979
0.56006
0.56494
0.58008
0.56982
0.54492
0.5249
0.51514
0.5249
0.53516
0.56494
0.56494
0.56006
0.53516
0.53516
0.54004
0.53516
0.56494
0.52979
0.5249
0.50977
0.52002
0.56494
0.62988
0.66504
0.58496
0.27002
-0.17969
-0.30957
-0.16504
0.18018
0.52979
0.7251
0.73486
0.61475
0.56494
0.55518
0.56494
0.5752
0.56982
0.58984
0.5752
0.6001
0.60498
0.58008
0.56494
0.56982
0.56006
0.5249
0.5
0.47021
0.48486
0.48486
0.45508
0.43506
0.44482
0.44482
0.45508
0.4502
0.46484
0.45996
0.47021
0.47998
0.47021
0.45508
0.46484
0.43994
0.47021
0.47021
0.47021
0.49512
0.5
0.51514
0.54004
0.56006
0.58008
0.56494
0.56006
0.5498
0.54492
0.55518
0.5249
0.50488
0.50977
0.5249
0.51514
0.52979
0.54004
0.5249
0.55518
0.54004
0.58008
0.56006
0.55518
0.58984
0.58008
0.6499
0.69482
0.66504
0.41992
-0.064941
-0.31494
-0.32959
0.070313
0.4248
0.68994
0.74512
0.66992
0.62012
0.60986
0.60986
0.59521
0.58496
0.55518
0.54004
0.53516
0.52979
0.5498
0.56494
0.53516
0.54492
0.5249
0.54492
0.54004
0.56006
0.53516
0.51514
0.50488
0.5
0.47021
0.45996
0.43994
0.43506
0.45996
0.43994
0.46484
0.47998
0.47021
0.49512
0.52002
0.52979
0.53516
0.52002
0.5249
0.49512
0.49023
0.4751
0.4751
0.47998
0.48486
0.5
0.5249
0.52002
0.52002
0.54004
0.54492
0.54004
0.58496
0.59521
0.54492
0.5498
0.55518
0.52002
0.50488
0.5249
0.50488
0.49512
0.49023
0.52979
0.51514
0.52002
0.54004
0.54004
0.5498
0.53516
0.51514
0.52979
0.53516
0.54004
0.52979
0.56494
0.62012
0.68018
0.68506
0.45996
-0.024902
-0.31982
-0.32959
-0.0048828
0.35986
0.63477
0.68506
0.64502
0.61475
0.5752
0.56006
0.5498
0.5752
0.58496
0.56494
0.58008
0.56494
0.58496
0.55518
0.56494
0.5498
0.55518
0.52002
0.50488
0.50977
0.47021
0.46484
0.48486
0.49512
0.43994
0.4248
0.44482
0.44482
0.43506
0.4248
0.43018
0.43506
0.43018
0.44482
0.47021
0.49023
0.50977
0.50488
0.5249
0.53516
0.5498
0.52979
0.53516
0.54004
0.56006
0.54492
0.50488
0.51514
0.5
0.48486
0.49512
0.51514
0.54004
0.54492
0.54004
0.5498
0.55518
0.55518
0.5498
0.56494
0.54004
0.54492
0.54004
0.52979
0.51514
0.54492
0.50977
0.50488
0.52002
0.52002
0.5249
0.53516
0.53516
0.5498
0.56006
0.54004
0.54004
0.52979
0.53516
0.52979
0.53516
0.49023
0.47998
0.50977
0.49512
0.50488
0.49023
0.50977
0.54004
0.54492
0.5249
0.52002
0.54004
0.52979
0.49023
0.5249
0.60986
0.64014
0.60498
0.33984
-0.12988
-0.31494
-0.17969
0.080078
0.41504
0.64502
0.66992
0.6001
0.56494
0.56982
0.58496
0.56006
0.54004
0.5498
0.56006
0.55518
0.54004
0.54492
0.56006
0.54004
0.56006
0.56494
0.54004
0.53516
0.52002
0.50977
0.5
0.50488
0.47021
0.43994
0.41016
0.3999
0.41016
0.3999
0.3999
0.41992
0.4248
0.41016
0.43506
0.4751
0.5
0.51514
0.52979
0.53516
0.5249
0.54492
0.55518
0.52002
0.51514
0.5
0.51514
0.52002
0.50488
0.52979
0.54004
0.5498
0.56494
0.55518
0.54004
0.56982
0.55518
0.6001
0.56982
0.53516
0.51514
0.52002
0.51514
0.52002
0.50977
0.50488
0.52979
0.54004
0.55518
0.56006
0.54492
0.56006
0.58984
0.5752
0.55518
0.54004
0.5249
0.56006
0.54492
0.52979
0.5249
0.49512
0.49512
0.50488
0.50488
0.54004
0.56982
0.64014
0.66992
0.62988
0.39014
-0.10498
-0.32471
-0.18506
0.11523
0.4502
0.66504
0.69482
0.65479
0.60498
0.56006
0.54004
0.53516
0.54492
0.54004
0.56982
0.58496
0.61475
0.60986
0.58496
0.5752
0.58984
0.56006
0.56494
0.56006
0.5249
0.49023
0.4751
0.43506
0.38525
0.375
0.3999
0.41992
0.43994
0.44482
0.47021
0.47021
0.50488
0.50977
0.51514
0.51514
0.52979
0.51514
0.5
0.5
0.50488
0.4751
0.44482
0.4751
0.49512
0.52002
0.54004
0.54004
0.54492
0.53516
0.50977
0.47998
0.33984
0.14502
0.095215
0.20508
0.31006
0.33008
0.090332
-0.47998
-0.49951
-0.49951
-0.49951
-0.48975
-0.074707
0.38525
0.68018
0.7998
0.85986
0.89502
0.8999
0.93506
0.93994
0.93994
0.94971
0.93994
0.92969
0.91992
0.91504
0.9248
0.91504
0.97998
1.0249
1.0601
1.0947
1.0547
1.0146
1.02
0.9751
0.94971
0.90479
0.87012
0.81494
0.72998
0.68994
0.6499
0.60498
0.56006
0.52002
0.50977
0.51514
0.5
0.49023
0.45996
0.44482
0.4502
0.45508
0.46484
0.4751
0.49023
0.44482
0.49023
0.49512
0.43994
0.41992
0.41016
0.43506
0.44482
0.4502
0.47021
0.49512
0.5
0.4751
0.47998
0.49023
0.47021
0.46484
0.48486
0.49023
0.45996
0.4502
0.43994
0.43506
0.4502
0.47021
0.4751
0.4751
0.48486
0.51514
0.5
0.47021
0.48486
0.50977
0.52002
0.51514
0.50977
0.48486
0.47021
0.44482
0.45508
0.4248
0.43506
0.4502
0.51514
0.58008
0.60986
0.55518
0.28027
-0.1499
-0.30469
-0.22461
0.024902
0.36523
0.58984
0.60498
0.56982
0.56006
0.5498
0.56006
0.54492
0.54004
0.55518
0.5498
0.56982
0.58984
0.56494
0.56006
0.5752
0.54492
0.54004
0.49023
0.46484
0.44482
0.4248
0.41992
0.38525
0.375
0.37012
0.375
0.36523
0.37012
0.375
0.41504
0.41504
0.40479
0.41016
0.4248
0.44482
0.43994
0.47021
0.49023
0.50488
0.50488
0.52979
0.54004
0.55518
0.54004
0.54004
0.52979
0.52002
0.51514
0.5
0.49512
0.49023
0.51514
0.50977
0.50488
0.52979
0.56494
0.58008
0.56494
0.56494
0.56982
0.58008
0.58496
0.5249
0.48486
0.47021
0.5
0.50977
0.50977
0.5498
0.5752
0.56494
0.5498
0.54004
0.56006
0.54004
0.55518
0.58008
0.5498
0.51514
0.49512
0.5
0.56982
0.65479
0.66504
0.50488
0.125
-0.23486
-0.2998
-0.054688
0.30029
0.60498
0.73486
0.69482
0.625
0.58496
0.56494
0.55518
0.56494
0.52979
0.5498
0.56494
0.56006
0.56494
0.58984
0.6001
0.61475
0.62012
0.58008
0.56494
0.53516
0.48486
0.47021
0.45996
0.43994
0.41992
0.41504
0.41504
0.4248
0.44482
0.47021
0.4751
0.4751
0.47021
0.49023
0.49023
0.5
0.52002
0.52002
0.50977
0.50488
0.52002
0.52002
0.52002
0.5249
0.52002
0.54004
0.55518
0.5498
0.58008
0.56494
0.55518
0.5249
0.52002
0.52002
0.52979
0.53516
0.54004
0.53516
0.53516
0.54004
0.54004
0.55518
0.5752
0.55518
0.5752
0.54492
0.52002
0.50977
0.52002
0.54004
0.5498
0.54004
0.54004
0.54004
0.53516
0.5498
0.55518
0.54492
0.5249
0.50488
0.50977
0.4751
0.48486
0.5
0.50488
0.48486
0.54492
0.60498
0.65479
0.62012
0.41016
-0.060059
-0.2749
-0.19482
0.075195
0.36523
0.6001
0.65479
0.6001
0.56982
0.5752
0.5752
0.58984
0.60498
0.60986
0.61475
0.625
0.6001
0.59521
0.60986
0.56494
0.53516
0.51514
0.47998
0.47021
0.46484
0.45996
0.47021
0.44482
0.44482
0.45996
0.47021
0.47021
0.43994
0.45508
0.43994
0.43506
0.43018
0.4248
0.43994
0.45508
0.4502
0.49512
0.5249
0.52979
0.52002
0.54492
0.52002
0.53516
0.54492
0.53516
0.52002
0.5249
0.50977
0.49512
0.49512
0.52002
0.52002
0.52979
0.54004
0.54492
0.5249
0.54004
0.54492
0.54004
0.52979
0.54492
0.53516
0.5249
0.50488
0.5
0.52979
0.54004
0.54492
0.55518
0.54004
0.53516
0.54492
0.5498
0.5249
0.5249
0.53516
0.5249
0.52002
0.50977
0.52002
0.58984
0.68018
0.66992
0.56982
0.23486
-0.21973
-0.33496
-0.1748
0.16992
0.5249
0.68994
0.6499
0.60986
0.58984
0.6001
0.58984
0.60498
0.61475
0.58984
0.56494
0.56006
0.54004
0.54004
0.54492
0.50977
0.52002
0.49023
0.48486
0.49512
0.5
0.50488
0.47021
0.47021
0.47998
0.47021
0.46484
0.44482
0.45996
0.43018
0.41504
0.41016
0.43506
0.44482
0.47021
0.47998
0.47021
0.48486
0.5
0.54004
0.56982
0.58496
0.56494
0.55518
0.53516
0.49512
0.49512
0.5
0.48486
0.49512
0.50488
0.53516
0.54004
0.53516
0.52979
0.53516
0.54492
0.56494
0.55518
0.56494
0.53516
0.53516
0.51514
0.50977
0.49512
0.52002
0.54004
0.52979
0.54004
0.56006
0.56494
0.54004
0.55518
0.54004
0.53516
0.54492
0.55518
0.52002
0.52002
0.52002
0.5
0.50977
0.51514
0.49512
0.5249
0.54004
0.54492
0.5249
0.52002
0.52002
0.54004
0.5498
0.56006
0.55518
0.51514
0.49512
0.49512
0.5
0.50977
0.52002
0.49023
0.47998
0.51514
0.54004
0.52002
0.5249
0.53516
0.54004
0.59521
0.68506
0.7002
0.5752
0.20996
-0.22461
-0.34473
-0.18506
0.125
0.43018
0.62012
0.62988
0.60986
0.6001
0.58984
0.6001
0.58984
0.60498
0.62012
0.58008
0.55518
0.56006
0.54004
0.56494
0.54492
0.52002
0.5249
0.53516
0.55518
0.54004
0.52979
0.50488
0.50488
0.48486
0.45508
0.44482
0.45508
0.43994
0.46484
0.47021
0.4248
0.4248
0.43506
0.44482
0.43018
0.43018
0.4751
0.5
0.52002
0.5498
0.54004
0.52002
0.50488
0.52979
0.54004
0.56006
0.54492
0.5249
0.52002
0.52002
0.5249
0.51514
0.52002
0.5249
0.52979
0.52002
0.52002
0.49023
0.46484
0.33984
0.17529
0.12988
0.19531
0.31006
0.43506
0.4502
-0.0097656
-0.49951
-0.49951
-0.49951
-0.49951
-0.23975
0.20996
0.54492
0.72998
0.77979
0.81494
0.81982
0.83984
0.84473
0.83984
0.86475
0.875
0.8999
0.89502
0.90479
0.93506
0.95508
0.97998
1.0146
1.0449
1.085
1.0947
1.0449
1.0347
1.0449
0.98975
0.94971
0.89014
0.83984
0.79492
0.74512
0.69482
0.64014
0.60498
0.56494
0.5249
0.49023
0.4751
0.45508
0.45508
0.45996
0.4248
0.41504
0.43018
0.44482
0.43994
0.43018
0.47021
0.46484
0.49023
0.44482
0.46484
0.41016
0.41504
0.41016
0.43018
0.45996
0.46484
0.45508
0.44482
0.45996
0.45508
0.4751
0.4502
0.45996
0.44482
0.43994
0.45996
0.46484
0.44482
0.4751
0.44482
0.4502
0.4751
0.4751
0.46484
0.45508
0.48486
0.49512
0.51514
0.50488
0.49512
0.5
0.46484
0.45996
0.44482
0.4751
0.44482
0.44482
0.43506
0.46484
0.4502
0.45996
0.45996
0.47021
0.45508
0.5
0.5249
0.50977
0.48486
0.46484
0.49023
0.5
0.47021
0.47021
0.47998
0.46484
0.47021
0.4751
0.47021
0.49512
0.47998
0.47021
0.5
0.56494
0.61475
0.56982
0.40479
-0.0097656
-0.30469
-0.32959
-0.080078
0.2749
0.56494
0.64014
0.59521
0.56494
0.58496
0.60986
0.54492
0.5249
0.52002
0.54004
0.52979
0.52002
0.53516
0.54004
0.52002
0.52002
0.5249
0.53516
0.49512
0.49023
0.49023
0.46484
0.43994
0.44482
0.39502
0.3501
0.3252
0.33496
0.35498
0.33008
0.34521
0.375
0.39502
0.3999
0.4248
0.44482
0.48486
0.50488
0.54004
0.56006
0.58496
0.54492
0.51514
0.49512
0.52002
0.49023
0.49023
0.49512
0.5
0.5
0.50977
0.5249
0.55518
0.5498
0.58008
0.55518
0.54492
0.56494
0.55518
0.52979
0.52002
0.50488
0.52979
0.56006
0.5752
0.55518
0.53516
0.54492
0.56006
0.56494
0.56006
0.56494
0.56006
0.56494
0.56982
0.54004
0.54492
0.50977
0.52002
0.50977
0.50488
0.52979
0.52979
0.54492
0.55518
0.6001
0.66992
0.68506
0.54004
0.1499
-0.22461
-0.2998
-0.084961
0.22998
0.52979
0.68018
0.64014
0.625
0.59521
0.58984
0.58008
0.5752
0.59521
0.62012
0.58984
0.58008
0.56494
0.58008
0.58984
0.54004
0.55518
0.56982
0.50488
0.49023
0.47998
0.49023
0.49512
0.45996
0.45508
0.47021
0.45996
0.47021
0.45996
0.46484
0.4751
0.45508
0.45996
0.47021
0.47998
0.47021
0.49023
0.47998
0.52002
0.54004
0.56006
0.56006
0.56494
0.54492
0.5498
0.53516
0.52002
0.53516
0.54492
0.49512
0.50488
0.52002
0.52979
0.53516
0.52979
0.54004
0.5498
0.54004
0.55518
0.56494
0.56982
0.5498
0.50977
0.52002
0.51514
0.5249
0.54004
0.5249
0.52002
0.52979
0.54004
0.5249
0.54004
0.54492
0.55518
0.53516
0.5249
0.53516
0.54004
0.54004
0.52979
0.5249
0.55518
0.5498
0.54004
0.52002
0.50488
0.5
0.50488
0.49023
0.49512
0.47998
0.49512
0.50977
0.51514
0.52002
0.51514
0.56006
0.54004
0.52002
0.5249
0.52979
0.52002
0.53516
0.5249
0.52002
0.5
0.50488
0.49023
0.5
0.51514
0.59521
0.62012
0.60498
0.41016
-0.0097656
-0.27002
-0.28467
-0.044922
0.28027
0.55518
0.64014
0.58984
0.58984
0.5752
0.56494
0.56982
0.58496
0.56006
0.5498
0.56982
0.5752
0.55518
0.5498
0.56982
0.53516
0.54004
0.5249
0.49023
0.47021
0.4751
0.4502
0.43018
0.43506
0.43018
0.4248
0.43994
0.41504
0.40479
0.41504
0.43506
0.4248
0.4248
0.45996
0.4751
0.4502
0.44482
0.47998
0.49512
0.51514
0.52979
0.53516
0.52002
0.5498
0.54004
0.5498
0.5249
0.52002
0.5
0.49023
0.50488
0.51514
0.5
0.52002
0.52002
0.53516
0.55518
0.54004
0.5498
0.54492
0.56494
0.56006
0.58008
0.56494
0.54004
0.54492
0.47998
0.47021
0.5
0.49023
0.51514
0.50488
0.49512
0.52002
0.52979
0.54004
0.53516
0.54492
0.56006
0.6499
0.73486
0.69482
0.54492
0.14014
-0.30469
-0.37988
-0.10498
0.2251
0.52979
0.66504
0.66992
0.60498
0.5752
0.58984
0.60498
0.60986
0.6001
0.59521
0.58984
0.55518
0.56006
0.54492
0.53516
0.52979
0.58008
0.5498
0.52002
0.51514
0.50977
0.49023
0.47021
0.47021
0.4502
0.43994
0.4248
0.41504
0.41016
0.3999
0.37988
0.39502
0.43506
0.4502
0.48486
0.5
0.52979
0.54004
0.53516
0.58008
0.56006
0.53516
0.52979
0.53516
0.54004
0.50977
0.52002
0.5249
0.50977
0.5
0.52002
0.52002
0.5498
0.56494
0.54004
0.53516
0.52002
0.5
0.53516
0.5249
0.52002
0.56006
0.56494
0.56494
0.58984
0.5752
0.58008
0.58008
0.58496
0.56494
0.56494
0.60986
0.69482
0.70508
0.62012
0.30518
-0.17969
-0.37988
-0.22461
0.10986
0.45508
0.6748
0.69482
0.66504
0.61475
0.60986
0.62012
0.60498
0.59521
0.6001
0.58984
0.60986
0.60498
0.58496
0.58984
0.56982
0.53516
0.51514
0.50977
0.52979
0.54004
0.54004
0.5
0.50488
0.47998
0.4751
0.48486
0.49023
0.4751
0.45996
0.4502
0.41992
0.44482
0.4502
0.47021
0.45996
0.4751
0.48486
0.50977
0.5249
0.54004
0.55518
0.58496
0.60498
0.58008
0.60498
0.58984
0.59521
0.6001
0.60498
0.60986
0.59521
0.52979
0.46484
0.44482
0.43506
0.43018
0.46484
0.48486
0.49512
0.51514
0.52979
0.51514
0.54004
0.52002
0.53516
0.52979
0.54004
0.52979
0.52002
0.53516
0.54004
0.53516
0.56494
0.52979
0.5
0.47998
0.47021
0.46484
0.49023
0.51514
0.53516
0.52002
0.52002
0.54004
0.5498
0.54492
0.53516
0.51514
0.5249
0.54492
0.54004
0.54492
0.55518
0.55518
0.52002
0.51514
0.50488
0.53516
0.6001
0.60986
0.5
0.12988
-0.23975
-0.30469
-0.12988
0.17529
0.49023
0.62012
0.59521
0.60498
0.60986
0.58496
0.58008
0.58984
0.60986
0.60986
0.61475
0.60986
0.60498
0.6499
0.66992
0.6499
0.62012
0.56494
0.47998
0.43994
0.4248
0.41992
0.41504
0.39014
0.40479
0.39502
0.39014
0.375
0.3999
0.41992
0.4248
0.41992
0.45508
0.49512
0.5
0.52002
0.54004
0.52002
0.5
0.46484
0.43994
0.44482
0.4502
0.4751
0.49512
0.49512
0.50488
0.52002
0.50977
0.53516
0.5498
0.56494
0.60498
0.58984
0.56494
0.5249
0.50488
0.5
0.48486
0.4751
0.49512
0.48486
0.49512
0.50977
0.5249
0.54004
0.5498
0.5498
0.54492
0.56494
0.58496
0.59521
0.56494
0.52979
0.5
0.49512
0.47998
0.49512
0.50488
0.5
0.52002
0.51514
0.52002
0.52979
0.5498
0.56006
0.56006
0.56494
0.58008
0.56006
0.55518
0.5498
0.64014
0.65479
0.5752
0.33008
-0.10986
-0.33984
-0.34961
-0.014648
0.34521
0.63477
0.68506
0.66992
0.63477
0.62988
0.63477
0.60498
0.60986
0.58008
0.5249
0.50977
0.52002
0.53516
0.5
0.50977
0.54004
0.53516
0.55518
0.50488
0.49512
0.5
0.52002
0.49512
0.49023
0.4502
0.45508
0.46484
0.43994
0.44482
0.43994
0.47998
0.50488
0.5249
0.50488
0.4502
0.43018
0.44482
0.43994
0.48486
0.48486
0.49512
0.5
0.52002
0.51514
0.5249
0.50488
0.5
0.5249
0.52002
0.5498
0.56006
0.58984
0.60986
0.62012
0.56494
0.52002
0.47021
0.45996
0.47998
0.49512
0.50488
0.52002
0.51514
0.54004
0.52002
0.53516
0.54492
0.56494
0.56982
0.59521
0.60498
0.58496
0.56006
0.54492
0.50977
0.49512
0.5
0.47998
0.49023
0.49512
0.5249
0.54004
0.54492
0.56006
0.53516
0.56982
0.68018
0.72998
0.68018
0.43506
-0.054688
-0.33984
-0.35986
-0.0097656
0.31982
0.58984
0.66504
0.625
0.58984
0.58984
0.6001
0.58496
0.61475
0.63477
0.62988
0.63477
0.60498
0.55518
0.52979
0.52002
0.51514
0.49023
0.48486
0.51514
0.50488
0.52002
0.5
0.47998
0.47021
0.47021
0.49512
0.52002
0.5
0.4751
0.45508
0.47021
0.4248
0.41016
0.43018
0.46484
0.4502
0.46484
0.49512
0.52002
0.5249
0.51514
0.52002
0.52979
0.5498
0.5752
0.58496
0.58984
0.53516
0.50488
0.4751
0.47021
0.4751
0.49023
0.52002
0.50488
0.48486
0.4751
0.49512
0.52979
0.54492
0.55518
0.54004
0.5752
0.60498
0.60986
0.56494
0.55518
0.5
0.49023
0.4751
0.49512
0.5
0.5
0.5
0.49512
0.52002
0.53516
0.55518
0.54492
0.56494
0.54004
0.53516
0.56494
0.5752
0.5498
0.51514
0.5
0.47998
0.49512
0.4751
0.44482
0.47021
0.46484
0.47021
0.49512
0.50488
0.52002
0.52979
0.51514
0.52979
0.53516
0.51514
0.54004
0.53516
0.54004
0.51514
0.47998
0.48486
0.47021
0.49512
0.48486
0.49023
0.50977
0.5249
0.50977
0.50488
0.5498
0.625
0.64502
0.58496
0.37988
-0.074707
-0.32959
-0.25488
-0.02002
0.29492
0.5498
0.60498
0.6001
0.58984
0.59521
0.58984
0.58496
0.5752
0.58496
0.56494
0.56494
0.55518
0.53516
0.53516
0.53516
0.54004
0.5249
0.5
0.49512
0.47998
0.4751
0.4751
0.4502
0.43018
0.43994
0.3999
0.4248
0.45996
0.47021
0.4248
0.43018
0.43506
0.45508
0.45508
0.46484
0.47021
0.49023
0.49512
0.46484
0.49023
0.5
0.51514
0.52002
0.53516
0.53516
0.5498
0.5249
0.52979
0.5249
0.56006
0.56006
0.54492
0.52979
0.5249
0.52979
0.52002
0.52002
0.5249
0.52979
0.52002
0.56006
0.5498
0.56494
0.56982
0.56006
0.53516
0.5249
0.49512
0.51514
0.52002
0.54492
0.56006
0.51514
0.52002
0.54004
0.5498
0.55518
0.58008
0.625
0.6748
0.66504
0.55518
0.2002
-0.18994
-0.31982
-0.1499
0.16992
0.49512
0.6748
0.7002
0.625
0.60498
0.60986
0.60498
0.59521
0.6001
0.5752
0.54492
0.54004
0.54492
0.56982
0.56006
0.55518
0.54004
0.54004
0.56494
0.53516
0.52002
0.51514
0.49512
0.4751
0.46484
0.44482
0.40479
0.3999
0.38525
0.3999
0.41016
0.43994
0.4502
0.5
0.50488
0.5
0.52979
0.5249
0.54004
0.53516
0.54004
0.53516
0.54004
0.54492
0.52979
0.52002
0.54004
0.5
0.52002
0.5
0.5249
0.56494
0.5752
0.53516
0.5498
0.55518
0.54492
0.54004
0.54004
0.56006
0.56494
0.52002
0.52002
0.50977
0.50488
0.49512
0.50977
0.53516
0.54004
0.52002
0.51514
0.50977
0.56006
0.56982
0.55518
0.58496
0.54492
0.54004
0.56494
0.55518
0.53516
0.52002
0.53516
0.54004
0.51514
0.50977
0.54492
0.54004
0.52979
0.5
0.50977
0.5249
0.53516
0.52002
0.51514
0.54004
0.5
0.47998
0.47021
0.5249
0.60498
0.66016
0.64014
0.45508
0.030273
-0.25
-0.28467
-0.014648
0.31006
0.58008
0.64502
0.61475
0.58984
0.5752
0.56494
0.55518
0.5498
0.56006
0.58008
0.5752
0.58984
0.58984
0.56494
0.56982
0.56494
0.5498
0.52979
0.5249
0.50977
0.5
0.48486
0.4751
0.4502
0.43994
0.44482
0.43506
0.43018
0.45508
0.43018
0.43994
0.4502
0.47021
0.45996
0.47021
0.49512
0.4751
0.48486
0.5
0.52002
0.50488
0.53516
0.54004
0.52002
0.54004
0.51514
0.50488
0.5249
0.47021
0.49512
0.49512
0.5
0.50977
0.51514
0.5
0.52002
0.54004
0.54492
0.54004
0.53516
0.55518
0.56006
0.5752
0.54004
0.53516
0.54004
0.5
0.5
0.48486
0.51514
0.52002
0.52002
0.52002
0.53516
0.55518
0.56006
0.5498
0.56982
0.56494
0.56982
0.56494
0.56006
0.53516
0.51514
0.48486
0.45996
0.4502
0.44482
0.45996
0.48486
0.49512
0.47998
0.50977
0.5249
0.52979
0.5249
0.54492
0.56006
0.54004
0.53516
0.5249
0.5
0.4751
0.45996
0.4502
0.45508
0.47998
0.49023
0.49512
0.50488
0.49512
0.49023
0.51514
0.52979
0.54004
0.52979
0.58496
0.64502
0.61475
0.5
0.10498
-0.33496
-0.38965
-0.16992
0.17529
0.49023
0.62012
0.61475
0.6001
0.59521
0.6001
0.60986
0.58984
0.54004
0.51514
0.53516
0.54004
0.5249
0.53516
0.52002
0.5498
0.56006
0.54492
0.55518
0.52979
0.55518
0.56006
0.49023
0.4751
0.47998
0.4502
0.39502
0.35986
0.36523
0.37988
0.39014
0.41504
0.4248
0.43994
0.4751
0.5
0.49512
0.52002
0.52979
0.53516
0.54492
0.56006
0.5249
0.5
0.50488
0.48486
0.47998
0.49023
0.5
0.50977
0.51514
0.52979
0.54004
0.52002
0.54004
0.54004
0.55518
0.5752
0.59521
0.60986
0.61475
0.58496
0.51514
0.49023
0.49512
0.47998
0.45996
0.47021
0.5
0.51514
0.53516
0.54004
0.55518
0.56494
0.55518
0.56006
0.54492
0.56494
0.59521
0.62012
0.6001
0.5498
0.50977
0.47021
0.47998
0.45996
0.45508
0.49023
0.47998
0.49512
0.52002
0.54004
0.55518
0.54004
0.54492
0.58496
0.59521
0.58008
0.54004
0.54004
0.53516
0.52002
0.50488
0.48486
0.4502
0.45508
0.46484
0.47998
0.49023
0.50977
0.53516
0.54004
0.52979
0.55518
0.56494
0.56006
0.6499
0.69482
0.63477
0.35986
-0.084961
-0.33984
-0.35498
-0.040039
0.29492
0.56982
0.63477
0.58984
0.58496
0.60986
0.58984
0.58984
0.6001
0.58984
0.60986
0.625
0.58984
0.6001
0.60498
0.56006
0.54492
0.52979
0.5249
0.50488
0.49023
0.49512
0.46484
0.47998
0.47021
0.45508
0.43506
0.41504
0.4248
0.43994
0.44482
0.43506
0.43994
0.43506
0.4502
0.47021
0.47998
0.51514
0.52979
0.54004
0.54004
0.5249
0.52002
0.54492
0.53516
0.52979
0.54492
0.5249
0.50977
0.49023
0.49512
0.50488
0.52002
0.52002
0.51514
0.54004
0.5249
0.5498
0.54004
0.5249
0.52979
0.52002
0.53516
0.5498
0.54492
0.56494
0.53516
0.50977
0.52002
0.49512
0.51514
0.5
0.54004
0.54004
0.54004
0.54004
0.5498
0.53516
0.54004
0.54004
0.54492
0.56494
0.50488
0.49512
0.5
0.49512
0.52002
0.52002
0.52979
0.51514
0.54004
0.52979
0.61475
0.68994
0.63477
0.44482
0.024902
-0.2749
-0.2998
-0.014648
0.31494
0.58496
0.66992
0.63477
0.60498
0.56006
0.56494
0.52979
0.54492
0.56006
0.56982
0.56494
0.58008
0.58984
0.58496
0.59521
0.60986
0.56494
0.5498
0.51514
0.49023
0.46484
0.45508
0.43994
0.41992
0.4248
0.41016
0.3999
0.41992
0.43018
0.43018
0.4502
0.47021
0.48486
0.49512
0.48486
0.49512
0.51514
0.47998
0.46484
0.48486
0.49512
0.49512
0.49023
0.5
0.5249
0.54004
0.54492
0.5498
0.56494
0.56006
0.5498
0.54004
0.5249
0.49512
0.51514
0.4751
0.47998
0.49023
0.49512
0.50977
0.51514
0.50488
0.53516
0.54492
0.56494
0.56982
0.58984
0.58984
0.60498
0.58984
0.58496
0.52979
0.5
0.46484
0.4751
0.46484
0.45508
0.47021
0.47998
0.50977
0.62012
0.68506
0.68994
0.56006
0.20996
-0.19482
-0.27979
-0.064941
0.25488
0.56006
0.65479
0.62012
0.56982
0.5498
0.53516
0.5498
0.5752
0.56982
0.59521
0.62012
0.625
0.62012
0.63477
0.65479
0.66016
0.59521
0.50488
0.4502
0.43506
0.43994
0.3999
0.3999
0.375
0.38525
0.37988
0.39502
0.4248
0.4502
0.46484
0.49023
0.52002
0.54004
0.52002
0.51514
0.49023
0.48486
0.47998
0.4502
0.4751
0.49023
0.5
0.48486
0.5249
0.53516
0.53516
0.56494
0.56494
0.58008
0.58984
0.56982
0.50977
0.5
0.48486
0.49023
0.5
0.52002
0.50977
0.52002
0.50488
0.52002
0.54492
0.55518
0.56006
0.6001
0.60986
0.6001
0.56006
0.54004
0.5498
0.52002
0.51514
0.53516
0.58496
0.6748
0.6748
0.6001
0.26514
-0.18506
-0.30469
-0.11963
0.20996
0.5249
0.68994
0.69482
0.62988
0.60986
0.60498
0.58496
0.58008
0.5752
0.60986
0.61475
0.5752
0.56006
0.54492
0.56006
0.5752
0.58008
0.56006
0.54492
0.56006
0.51514
0.50977
0.49023
0.4751
0.49512
0.49023
0.4751
0.46484
0.46484
0.45996
0.46484
0.47998
0.47021
0.47998
0.47021
0.4751
0.49023
0.51514
0.5249
0.52979
0.54004
0.53516
0.54004
0.52979
0.54004
0.54492
0.51514
0.48486
0.49512
0.5249
0.52002
0.52002
0.53516
0.53516
0.5249
0.54004
0.56006
0.56494
0.56006
0.56494
0.54492
0.54004
0.55518
0.54492
0.5249
0.58496
0.66992
0.64502
0.46484
0
-0.28467
-0.30469
0.015137
0.37012
0.66992
0.72998
0.6748
0.64014
0.65479
0.6499
0.66504
0.61475
0.54004
0.5
0.50977
0.52002
0.53516
0.51514
0.52979
0.5249
0.53516
0.54004
0.54492
0.52979
0.5249
0.52002
0.52979
0.51514
0.49512
0.48486
0.43018
0.43506
0.3999
0.40479
0.41504
0.43506
0.45508
0.47021
0.49023
0.50977
0.50488
0.55518
0.56494
0.56982
0.54492
0.53516
0.50488
0.47021
0.47998
0.49023
0.47021
0.4751
0.49512
0.5
0.51514
0.54004
0.56006
0.56494
0.5752
0.58008
0.56006
0.56494
0.55518
0.54004
0.53516
0.5498
0.52002
0.52002
0.52979
0.54004
0.52002
0.52002
0.56982
0.66504
0.71484
0.7251
0.43994
-0.094727
-0.35986
-0.22461
0.060059
0.41016
0.66016
0.70996
0.64014
0.6001
0.59521
0.60498
0.56982
0.56494
0.56982
0.56006
0.5249
0.53516
0.56494
0.56006
0.5752
0.56006
0.58984
0.56006
0.55518
0.54004
0.52979
0.52002
0.49023
0.46484
0.44482
0.4248
0.4502
0.4248
0.43018
0.37988
0.39502
0.4248
0.45508
0.46484
0.5
0.52002
0.54004
0.54492
0.54004
0.56494
0.53516
0.50488
0.5
0.47998
0.49023
0.47021
0.50488
0.50488
0.51514
0.5249
0.54004
0.54004
0.56494
0.56494
0.55518
0.54492
0.5498
0.56006
0.50977
0.5
0.50488
0.48486
0.5249
0.52002
0.53516
0.50977
0.51514
0.53516
0.60986
0.68994
0.70996
0.62988
0.24023
-0.21484
-0.29004
-0.13965
0.18506
0.54004
0.66016
0.61475
0.58984
0.56494
0.58496
0.56494
0.5752
0.56982
0.58984
0.60986
0.62012
0.625
0.58008
0.56006
0.56494
0.53516
0.51514
0.52002
0.4751
0.50488
0.52002
0.5
0.49023
0.47998
0.47998
0.48486
0.47021
0.4751
0.41504
0.40479
0.44482
0.43994
0.43018
0.4502
0.47021
0.5
0.52002
0.51514
0.52979
0.5249
0.5498
0.56494
0.56982
0.56494
0.58984
0.51514
0.52002
0.49512
0.48486
0.4751
0.47998
0.49023
0.50488
0.50977
0.53516
0.56494
0.6001
0.60986
0.58496
0.56494
0.56982
0.54004
0.53516
0.52002
0.51514
0.50977
0.52979
0.52002
0.50488
0.51514
0.52002
0.52002
0.53516
0.56494
0.58008
0.55518
0.52979
0.5249
0.50977
0.51514
0.52002
0.52979
0.5
0.50977
0.54492
0.65479
0.68994
0.63477
0.37988
-0.094727
-0.34473
-0.21973
0.080078
0.43018
0.66992
0.68994
0.6001
0.56982
0.58984
0.56006
0.5498
0.56006
0.58984
0.58984
0.58984
0.6001
0.58984
0.58008
0.56494
0.54004
0.54492
0.58496
0.55518
0.52002
0.51514
0.49512
0.5
0.49023
0.47021
0.46484
0.4502
0.44482
0.4248
0.4248
0.43994
0.43018
0.44482
0.47021
0.47021
0.49023
0.5249
0.54004
0.5498
0.55518
0.54004
0.56982
0.5249
0.52002
0.52002
0.5
0.49023
0.49023
0.49023
0.49512
0.50488
0.5249
0.54004
0.54004
0.56494
0.58984
0.56982
0.56006
0.56494
0.56494
0.54492
0.50488
0.5
0.49512
0.50488
0.52002
0.51514
0.54492
0.6499
0.70508
0.66504
0.38525
-0.13477
-0.34961
-0.20996
0.095215
0.4502
0.70996
0.74512
0.66016
0.60986
0.625
0.6001
0.58984
0.60498
0.58984
0.55518
0.53516
0.52002
0.52002
0.54492
0.55518
0.56006
0.54492
0.54004
0.52979
0.53516
0.52002
0.49512
0.48486
0.46484
0.45508
0.44482
0.41992
0.41016
0.39014
0.40479
0.43506
0.45996
0.4502
0.47998
0.50488
0.51514
0.53516
0.5498
0.56006
0.54004
0.54492
0.5498
0.52002
0.52979
0.53516
0.50977
0.53516
0.56006
0.56494
0.54492
0.54004
0.54492
0.52002
0.50488
0.52002
0.52002
0.52002
0.52979
0.52002
0.54004
0.54004
0.52002
0.52979
0.52002
0.51514
0.50977
0.50488
0.5
0.51514
0.54004
0.52002
0.51514
0.53516
0.54492
0.52002
0.53516
0.55518
0.54492
0.5498
0.54492
0.52002
0.50488
0.52002
0.52979
0.49023
0.5249
0.62012
0.65479
0.60986
0.35986
-0.125
-0.30469
-0.19971
0.044922
0.38525
0.65479
0.68018
0.60986
0.58984
0.56494
0.56494
0.58984
0.5752
0.56982
0.56494
0.54492
0.53516
0.54492
0.54004
0.56006
0.55518
0.5498
0.52979
0.52002
0.49512
0.49023
0.49512
0.4502
0.43506
0.41504
0.41992
0.39502
0.4248
0.39502
0.38525
0.43506
0.4248
0.43994
0.46484
0.49512
0.48486
0.50488
0.52002
0.54004
0.53516
0.5249
0.54004
0.5249
0.49512
0.51514
0.5249
0.51514
0.51514
0.52002
0.52002
0.52979
0.5498
0.5498
0.54492
0.54004
0.55518
0.52979
0.52979
0.53516
0.54004
0.5498
0.55518
0.53516
0.53516
0.5498
0.56494
0.53516
0.52002
0.51514
0.54492
0.54004
0.5498
0.54004
0.54492
0.5498
0.55518
0.52979
0.51514
0.53516
0.5249
0.52979
0.53516
0.5249
0.50977
0.51514
0.5
0.52002
0.50977
0.52979
0.54004
0.54492
0.5498
0.52979
0.53516
0.52002
0.47998
0.45996
0.49023
0.47998
0.50977
0.52002
0.5249
0.52002
0.50977
0.52002
0.54004
0.5249
0.52002
0.52002
0.53516
0.52002
0.50977
0.55518
0.62012
0.63477
0.56494
0.26514
-0.17969
-0.33984
-0.19971
0.090332
0.41504
0.625
0.64502
0.56494
0.54004
0.56006
0.58496
0.60986
0.59521
0.58008
0.56494
0.56982
0.56982
0.58496
0.59521
0.56494
0.56006
0.56494
0.55518
0.54004
0.5
0.48486
0.44482
0.4502
0.43506
0.43018
0.45508
0.4502
0.43018
0.41992
0.45508
0.45996
0.46484
0.46484
0.47998
0.49023
0.47021
0.47021
0.49512
0.5
0.47021
0.49512
0.5
0.51514
0.52002
0.52979
0.54004
0.53516
0.56006
0.52979
0.53516
0.50977
0.51514
0.5
0.48486
0.5
0.52002
0.54004
0.52979
0.53516
0.54492
0.56494
0.56982
0.56494
0.58984
0.56982
0.58008
0.5752
0.54492
0.52979
0.47998
0.47021
0.4751
0.5
0.52002
0.5249
0.49512
0.48486
0.49512
0.52002
0.5249
0.51514
0.52979
0.5249
0.52002
0.52002
0.52979
0.53516
0.52979
0.53516
0.47021
0.46484
0.52002
0.50977
0.50488
0.53516
0.49023
0.49512
0.52002
0.50977
0.52979
0.54492
0.52979
0.52002
0.49512
0.47021
0.44482
0.45508
0.43994
0.47998
0.50977
0.51514
0.50977
0.52002
0.50977
0.5249
0.52002
0.5249
0.5752
0.66504
0.68018
0.59521
0.33008
-0.1748
-0.41992
