-0.025391
-0.019531
-0.019531
-0.025391
-0.0097656
-0.0039063
0.015625
0.041016
0.044922
0.054688
0.050781
0.076172
0.085938
0.099609
0.054688
0.035156
-0.0097656
-0.025391
-0.039063
-0.025391
-0.025391
-0.0097656
0.060547
0.11523
0.15625
0.0097656
-0.25977
-0.44336
-0.48828
-0.49805
-0.4082
-0.26367
-0.12891
-0.09375
-0.083984
-0.058594
-0.048828
-0.029297
-0.0097656
0.0097656
0.035156
0.03125
0.064453
0.070313
0.085938
0.099609
0.11133
0.13086
0.17578
0.18555
0.17969
0.18945
0.21094
0.21484
0.20117
0.20117
0.18555
0.16016
0.13477
0.13086
0.099609
0.099609
0.089844
0.099609
0.10547
0.11133
0.089844
0.10547
0.11523
0.095703
0.085938
0.095703
0.11523
0.13086
0.11523
0.14063
0.16992
0.18945
0.20117
0.21484
0.22461
0.21484
0.2207
0.23047
0.23047
0.23047
0.22461
0.2207
0.23047
0.21094
0.21094
0.20508
0.23047
0.18555
0.18555
0.18945
0.20117
0.2207
0.24609
0.23047
0.25586
0.25977
0.27539
0.2793
0.24023
0.16992
0.14063
0.11133
0.099609
0.089844
0.095703
0.085938
0.13086
0.20117
0.24609
0.080078
-0.17383
-0.38477
-0.41406
-0.42383
-0.33008
-0.19336
-0.074219
-0.019531
0
0.019531
0.015625
0.03125
0.015625
0.0097656
0.025391
0.019531
0.035156
0.035156
0.025391
0.035156
0.03125
0.025391
0.019531
0.041016
0.044922
0.0058594
0.019531
0.025391
0.019531
0.025391
0.041016
0.035156
0
-0.025391
-0.029297
-0.035156
-0.035156
-0.048828
-0.048828
-0.064453
-0.048828
-0.058594
-0.058594
-0.074219
-0.074219
-0.070313
-0.048828
-0.064453
-0.058594
-0.048828
-0.035156
-0.0039063
-0.0097656
-0.0039063
-0.019531
0.0058594
0
0.019531
0.0058594
0.015625
0
0
0.015625
0.019531
-0.044922
-0.058594
-0.054688
-0.044922
-0.0097656
0.0058594
0.041016
0.035156
0.050781
0.080078
0.089844
0.080078
0.11133
0.035156
-0.019531
-0.035156
-0.048828
-0.048828
-0.039063
-0.048828
-0.025391
0.050781
0.095703
0.13477
-0.054688
-0.31445
-0.49414
-0.49805
-0.49805
-0.41992
-0.25977
-0.10938
-0.064453
-0.039063
-0.025391
-0.0097656
-0.013672
0.015625
0.019531
0.03125
0.019531
0.019531
0.025391
0.041016
0.035156
0.054688
0.044922
0.044922
0.035156
0.050781
0.050781
0.085938
0.085938
0.089844
0.054688
0.044922
0.064453
0.025391
0.035156
0
-0.0097656
-0.025391
-0.029297
-0.025391
-0.048828
-0.044922
-0.058594
-0.070313
-0.054688
-0.074219
-0.048828
-0.064453
-0.058594
-0.048828
-0.025391
-0.035156
-0.025391
-0.0097656
-0.013672
0.019531
0.015625
0.0097656
0.019531
0.044922
0.035156
0.019531
0.019531
0.019531
0.019531
0.019531
0.0097656
0.019531
0.035156
0.044922
0.060547
0.089844
0.11523
0.099609
0.125
0.11523
0.12109
0.125
0.050781
0.019531
0.0058594
-0.019531
-0.025391
-0.035156
-0.048828
-0.019531
0.076172
0.12109
0.14453
-0.10352
-0.36328
-0.49805
-0.49805
-0.49805
-0.41992
-0.25
-0.13477
-0.099609
-0.074219
-0.064453
-0.048828
-0.025391
0.0058594
-0.029297
-0.025391
-0.029297
-0.035156
-0.044922
-0.029297
-0.025391
-0.025391
-0.039063
-0.044922
-0.025391
-0.0039063
0
0.0058594
0.015625
0.0097656
0.03125
0.019531
-0.0039063
-0.019531
-0.039063
-0.064453
-0.070313
-0.048828
-0.074219
-0.080078
-0.064453
-0.070313
-0.058594
-0.064453
-0.058594
-0.048828
-0.039063
-0.025391
-0.029297
0
-0.025391
0
0.0097656
0
0.0097656
0.019531
0.019531
0.025391
0.025391
0.035156
0.044922
0.044922
0.03125
0.019531
0.03125
0.025391
0.041016
0.035156
0
0.0097656
0.041016
0.064453
0.070313
0.095703
0.099609
0.089844
0.11523
0.12109
0.14063
0.12109
0.076172
0.064453
0.035156
0.0058594
0.0097656
0.0097656
0.019531
0.015625
0.13477
0.16992
0.18945
-0.089844
-0.33398
-0.45313
-0.46875
-0.41406
-0.30469
-0.13477
-0.035156
-0.0039063
0.015625
0.035156
0.044922
0.041016
0.035156
0.050781
0.044922
0.044922
0.044922
0.054688
0.044922
0.044922
0.044922
0.070313
0.060547
0.070313
0.070313
0.099609
0.10547
0.089844
0.11133
0.089844
0.089844
0.085938
0.070313
0.050781
0.044922
0.041016
0.044922
0.054688
0.044922
0.041016
0.060547
0.070313
0.050781
0.044922
0.064453
0.076172
0.089844
0.085938
0.099609
0.089844
0.11523
0.10547
0.13086
0.12109
0.14063
0.13086
0.14063
0.11523
0.095703
0.11523
0.10547
0.13086
0.10547
0.10547
0.089844
0.076172
0.060547
0.064453
0.080078
0.095703
0.11523
0.13477
0.14063
0.15039
0.16016
0.18945
0.18555
0.16602
0.125
0.064453
0.025391
0.015625
0.019531
0
-0.0039063
-0.0097656
0.10547
0.13477
0.16016
-0.11914
-0.35352
-0.49414
-0.49805
-0.43945
-0.30859
-0.16406
-0.064453
-0.035156
-0.019531
0
0.015625
0.025391
0.035156
0.015625
0.035156
0.044922
0.025391
0.041016
0.03125
0.015625
0.019531
0.019531
0.03125
0.050781
0.041016
0.044922
0.044922
0.054688
0.054688
0.070313
0.060547
0.03125
0.035156
0.0058594
-0.013672
-0.025391
-0.039063
-0.035156
-0.044922
-0.044922
-0.048828
-0.039063
-0.0097656
0
-0.0039063
-0.013672
0
-0.0039063
0
-0.0097656
0.015625
0.025391
0.041016
0.025391
0.019531
0.041016
0.044922
0.019531
0.03125
0.019531
0.03125
0.025391
0.03125
0.0058594
0.0058594
0.0097656
-0.0097656
0
0.019531
0.035156
0.054688
0.070313
0.080078
0.089844
0.12109
0.13086
0.14453
0.11133
0.03125
-0.019531
-0.054688
-0.070313
-0.064453
-0.074219
-0.083984
-0.025391
0.050781
0.10547
-0.039063
-0.28906
-0.48828
-0.49805
-0.49805
-0.43359
-0.28906
-0.12891
-0.064453
-0.039063
-0.044922
-0.039063
-0.025391
-0.019531
-0.013672
-0.0097656
0
-0.013672
0.0097656
0.0058594
0
0.0097656
0.019531
0.019531
0.015625
0.025391
0.041016
0.035156
0.044922
0.035156
0.035156
0.041016
0.044922
0.025391
0.015625
-0.0039063
-0.013672
0
-0.013672
-0.0039063
-0.035156
-0.039063
-0.019531
0.0058594
-0.0039063
0
-0.0097656
-0.0039063
-0.0039063
0.019531
0.015625
0.025391
0.035156
0.025391
0.03125
0.03125
0.044922
0.03125
0.03125
0.035156
0.025391
0.035156
0.041016
0.041016
0.035156
0.019531
0.041016
0.035156
0.03125
0.035156
0.050781
0.080078
0.095703
0.10547
0.11523
0.11523
0.14063
0.12109
0.070313
0.03125
0.0058594
-0.019531
-0.025391
-0.035156
-0.054688
-0.044922
0.044922
0.076172
0.11133
-0.080078
-0.33984
-0.49805
-0.49805
-0.49805
-0.41406
-0.25
-0.11523
-0.048828
-0.029297
-0.013672
-0.013672
0
0.0097656
0.0058594
0.015625
0
-0.0097656
0
0.015625
0.0097656
0.015625
0.0097656
0.041016
0.019531
0.019531
0.035156
0.044922
0.064453
0.070313
0.041016
0.041016
0.025391
0.019531
0.0097656
0
-0.0039063
-0.0097656
-0.0039063
-0.019531
-0.029297
-0.029297
-0.025391
0
-0.0097656
-0.0039063
0
0
0.0058594
0.015625
0.019531
0.015625
0.035156
0.044922
0.064453
0.044922
0.060547
0.060547
0.044922
0.035156
0.050781
0.044922
0.044922
0.044922
0.044922
0.041016
0.044922
0.044922
0.044922
0.044922
0.054688
0.060547
0.080078
0.089844
0.10547
0.11133
0.13086
0.14063
0.14453
0.10547
0.050781
0.025391
0
-0.0039063
-0.025391
-0.025391
-0.035156
0.0058594
0.064453
0.10547
0.11133
-0.22461
-0.45313
-0.49805
-0.49805
-0.43945
-0.30859
-0.14844
-0.070313
-0.044922
-0.019531
0.0097656
0.035156
0
0.0058594
0
-0.0039063
0
0.015625
0
-0.0097656
-0.0039063
0.0058594
0
0.035156
0.025391
0.041016
0.044922
0.064453
0.070313
0.035156
0.035156
0.03125
0.044922
0.0097656
0
-0.013672
-0.035156
-0.039063
-0.044922
-0.025391
-0.035156
-0.039063
-0.044922
-0.029297
-0.025391
-0.025391
-0.019531
-0.013672
0.015625
0.03125
0.0058594
0.025391
0.0097656
0.0097656
0.015625
0.025391
0.035156
0.019531
0.015625
0.019531
0.035156
0.019531
0.0097656
-0.0039063
0
-0.013672
-0.025391
-0.025391
-0.035156
-0.013672
-0.0039063
0.015625
0.03125
0.044922
0.060547
0.080078
0.085938
0.089844
0.099609
0.025391
-0.035156
-0.070313
-0.064453
-0.074219
-0.09375
-0.10352
-0.089844
0
0.044922
0.060547
-0.22852
-0.47461
-0.49805
-0.49805
-0.45898
-0.375
-0.19922
-0.12891
-0.099609
-0.074219
-0.048828
-0.044922
-0.048828
-0.029297
-0.044922
-0.025391
-0.035156
-0.0097656
-0.019531
-0.013672
-0.0097656
-0.025391
-0.019531
-0.025391
-0.0039063
0.0058594
0
0
0.0097656
0.0097656
0
0.0058594
0
-0.013672
-0.013672
-0.025391
-0.048828
-0.044922
-0.058594
-0.074219
-0.074219
-0.054688
-0.048828
-0.070313
-0.044922
-0.058594
-0.044922
-0.039063
-0.035156
-0.035156
-0.029297
-0.025391
-0.019531
-0.025391
-0.019531
-0.025391
-0.019531
0
-0.013672
-0.0097656
-0.019531
-0.025391
-0.013672
-0.0097656
-0.029297
-0.048828
-0.054688
-0.048828
-0.054688
-0.044922
-0.035156
-0.0097656
0.015625
0.035156
0.041016
0.064453
0.060547
0.080078
0.025391
-0.0097656
-0.064453
-0.089844
-0.09375
-0.11523
-0.11914
-0.10352
-0.048828
0.0097656
0.044922
-0.12891
-0.38867
-0.49805
-0.49805
-0.49805
-0.45898
-0.31445
-0.17969
-0.125
-0.09375
-0.074219
-0.074219
-0.058594
-0.054688
-0.048828
-0.070313
-0.074219
-0.048828
-0.048828
-0.029297
-0.029297
-0.029297
-0.035156
-0.035156
-0.025391
-0.0097656
0.019531
0
-0.0039063
0.0097656
0.0058594
0
0.0058594
-0.0097656
-0.025391
-0.035156
-0.039063
-0.058594
-0.048828
-0.035156
-0.054688
-0.074219
-0.070313
-0.058594
-0.058594
-0.054688
-0.029297
-0.044922
-0.048828
-0.029297
-0.013672
-0.029297
-0.035156
-0.025391
-0.025391
-0.039063
-0.029297
-0.019531
-0.019531
-0.0039063
-0.0097656
0
-0.0097656
0
-0.035156
-0.039063
-0.019531
-0.029297
-0.048828
-0.019531
-0.025391
-0.0039063
0
0.019531
0.015625
0.044922
0.054688
0.064453
0.019531
-0.019531
-0.064453
-0.099609
-0.10938
-0.11523
-0.10938
-0.11914
-0.039063
0.0058594
0.044922
-0.035156
-0.30469
-0.49805
-0.49805
-0.49805
-0.49805
-0.37891
-0.21875
-0.14844
-0.099609
-0.074219
-0.064453
-0.080078
-0.064453
-0.025391
-0.048828
-0.058594
-0.070313
-0.058594
-0.070313
-0.064453
-0.070313
-0.074219
-0.074219
-0.054688
-0.048828
-0.029297
-0.025391
-0.029297
-0.013672
-0.025391
-0.039063
-0.029297
-0.025391
-0.058594
-0.074219
-0.089844
-0.083984
-0.09375
-0.099609
-0.10938
-0.10352
-0.09375
-0.09375
-0.080078
-0.089844
-0.09375
-0.089844
-0.083984
-0.080078
-0.080078
-0.064453
-0.058594
-0.048828
-0.048828
-0.025391
-0.0039063
0
-0.025391
-0.0039063
0
-0.019531
-0.0097656
-0.013672
-0.0097656
-0.019531
-0.013672
-0.025391
-0.029297
-0.025391
-0.019531
-0.029297
-0.019531
0.015625
0.015625
0.03125
0.054688
0.060547
0.076172
0.080078
0.0097656
-0.013672
-0.054688
-0.074219
-0.074219
-0.080078
-0.070313
-0.048828
0.03125
0.070313
0.085938
-0.18945
-0.43945
-0.49805
-0.49805
-0.49805
-0.38867
-0.22852
-0.13867
-0.09375
-0.089844
-0.074219
-0.074219
-0.048828
-0.044922
-0.044922
-0.039063
-0.025391
-0.058594
-0.048828
-0.048828
-0.048828
-0.064453
-0.054688
-0.048828
-0.035156
-0.0097656
0.0058594
0.019531
0.019531
0.060547
0.0097656
-0.0039063
0
-0.013672
-0.048828
-0.058594
-0.074219
-0.070313
-0.064453
-0.089844
-0.080078
-0.064453
-0.080078
-0.089844
-0.074219
-0.048828
-0.048828
-0.054688
-0.048828
-0.029297
-0.035156
-0.029297
-0.025391
-0.025391
0.0058594
0
0.0097656
0
0.0097656
0.015625
0.019531
0.015625
0.019531
0.019531
0.0097656
-0.0039063
0.015625
-0.013672
-0.044922
-0.029297
-0.0097656
0.015625
0.03125
0.044922
0.041016
0.080078
0.089844
0.095703
0.099609
0.050781
-0.0039063
-0.019531
-0.054688
-0.070313
-0.089844
-0.064453
-0.058594
-0.013672
0.054688
0.080078
-0.083984
-0.36328
-0.49805
-0.49805
-0.49805
-0.43359
-0.28516
-0.1543
-0.09375
-0.080078
-0.048828
-0.064453
-0.083984
-0.074219
-0.058594
-0.064453
-0.058594
-0.074219
-0.048828
-0.044922
-0.035156
-0.029297
-0.025391
-0.0097656
-0.029297
-0.035156
-0.035156
-0.025391
-0.025391
-0.0097656
-0.0039063
-0.013672
-0.019531
-0.029297
-0.039063
-0.048828
-0.070313
-0.070313
-0.089844
-0.10938
-0.09375
-0.099609
-0.10352
-0.080078
-0.089844
-0.083984
-0.064453
-0.054688
-0.064453
-0.054688
-0.058594
-0.054688
-0.048828
-0.025391
-0.029297
-0.025391
-0.025391
0.0097656
-0.0097656
-0.013672
-0.044922
-0.029297
-0.013672
-0.0097656
-0.035156
-0.044922
-0.025391
-0.044922
-0.048828
-0.044922
-0.019531
0.015625
0.0097656
0.015625
0.041016
0.054688
0.076172
0.076172
0.080078
0.019531
-0.035156
-0.054688
-0.048828
-0.083984
-0.099609
-0.10352
-0.099609
-0.019531
0.03125
0.070313
-0.125
-0.39453
-0.49805
-0.49805
-0.49805
-0.43945
-0.2793
-0.16992
-0.10352
-0.080078
-0.074219
-0.048828
-0.058594
-0.064453
-0.054688
-0.029297
-0.054688
-0.048828
-0.035156
-0.039063
-0.029297
-0.0039063
0
-0.0097656
0.015625
0.0097656
0.019531
0.019531
0.041016
0.044922
0.019531
0.0058594
0.019531
0.0058594
0.0097656
-0.019531
-0.039063
-0.044922
-0.035156
-0.048828
-0.054688
-0.048828
-0.044922
-0.054688
-0.044922
-0.035156
-0.044922
-0.025391
-0.013672
-0.019531
-0.0039063
0
0.019531
0.025391
0.019531
0.041016
0.025391
0.035156
0.025391
0.041016
0.041016
0.044922
0.035156
0.041016
0.019531
0.03125
0.035156
0.015625
-0.0039063
0.0097656
0.025391
0.050781
0.064453
0.076172
0.089844
0.095703
0.11523
0.13477
0.099609
0.041016
0.025391
-0.019531
-0.048828
-0.058594
-0.064453
-0.064453
-0.019531
0.050781
0.099609
0.11523
-0.19922
-0.43945
-0.49805
-0.49805
-0.45898
-0.32422
-0.16406
-0.09375
-0.054688
-0.029297
-0.013672
-0.0097656
-0.0097656
-0.0097656
-0.0039063
0.015625
0.0058594
0
-0.019531
-0.0039063
-0.013672
-0.013672
-0.025391
-0.0097656
-0.013672
-0.013672
0
0.015625
0.0058594
0.025391
0.015625
0.0058594
-0.0039063
-0.029297
-0.029297
-0.039063
-0.054688
-0.074219
-0.074219
-0.080078
-0.083984
-0.080078
-0.070313
-0.074219
-0.089844
-0.070313
-0.080078
-0.089844
-0.058594
-0.054688
-0.029297
-0.035156
-0.039063
-0.025391
0.0058594
-0.0097656
-0.019531
-0.0097656
0
-0.0039063
-0.0097656
0.0058594
0
-0.0097656
-0.0039063
0.0058594
0
-0.0097656
0
-0.0039063
0.025391
0.019531
0.050781
0.070313
0.089844
0.089844
0.089844
0.11523
0.076172
0.025391
0.0097656
-0.025391
-0.019531
-0.048828
-0.048828
-0.048828
-0.0039063
0.080078
0.13477
0.14063
-0.21875
-0.43359
-0.49805
-0.49805
-0.45898
-0.33398
-0.16016
-0.083984
-0.048828
-0.029297
-0.019531
-0.0097656
0.0097656
0.0058594
0.015625
0.019531
0.035156
0.0097656
0.0058594
0
0
0.0097656
0.015625
0.019531
0.019531
0.015625
0.019531
0.044922
0.041016
0.044922
0.041016
0.044922
0.035156
0.0097656
0
0.0058594
0
-0.013672
-0.025391
-0.019531
-0.025391
-0.0039063
-0.0097656
-0.0039063
0
0.0058594
-0.0039063
0.019531
0.025391
0.015625
0.03125
0.044922
0.054688
0.044922
0.054688
0.044922
0.054688
0.064453
0.070313
0.050781
0.050781
0.044922
0.041016
0.044922
0.044922
0.041016
0.019531
0.03125
0.041016
0.035156
0.050781
0.044922
0.070313
0.070313
0.089844
0.10547
0.13086
0.14063
0.13477
0.15039
0.080078
0.035156
0
-0.0097656
0
-0.039063
-0.048828
-0.029297
0.050781
0.095703
0.11523
-0.14453
-0.4043
-0.49805
-0.49805
-0.48828
-0.37891
-0.19336
-0.083984
-0.029297
-0.035156
-0.029297
-0.025391
-0.019531
0
-0.013672
-0.025391
-0.025391
-0.013672
0.0058594
0.0097656
0.0058594
0.0097656
0
-0.0039063
0
0.019531
0.015625
0
0.025391
0.041016
0.019531
0.019531
0.0097656
0.0058594
0.019531
-0.0039063
-0.029297
-0.048828
-0.039063
-0.048828
-0.048828
-0.029297
-0.013672
-0.035156
-0.019531
-0.025391
-0.013672
-0.0039063
-0.0097656
-0.0097656
0.0058594
0.015625
0.0097656
0.03125
0.03125
0.035156
0.025391
0.044922
0.041016
0.035156
0.044922
0.050781
0.03125
0.015625
0.015625
0.0097656
0.015625
0
0.0058594
0
0.03125
0.050781
0.064453
0.080078
0.099609
0.125
0.11523
0.125
0.13086
0.044922
0.015625
-0.029297
-0.058594
-0.074219
-0.058594
-0.064453
-0.013672
0.035156
0.089844
0.11523
-0.19336
-0.43359
-0.49805
-0.49805
-0.47461
-0.33984
-0.18945
-0.11523
-0.064453
-0.044922
-0.035156
-0.025391
-0.019531
-0.0097656
0
0
-0.013672
-0.013672
0
0.0058594
0.019531
0.0058594
-0.0097656
0.0097656
0.0058594
0.0097656
0.0097656
0.019531
0.035156
0.025391
0.019531
0.03125
0.0097656
0.0058594
-0.0039063
-0.025391
-0.029297
-0.039063
-0.044922
-0.044922
-0.058594
-0.064453
-0.054688
-0.070313
-0.064453
-0.070313
-0.048828
-0.054688
-0.039063
-0.035156
-0.025391
-0.0097656
-0.0039063
0
-0.0097656
-0.013672
-0.0039063
-0.0097656
0
-0.019531
-0.013672
-0.025391
-0.025391
-0.013672
-0.025391
-0.019531
-0.035156
-0.019531
-0.029297
0.0058594
0.0097656
0.041016
0.035156
0.054688
0.044922
0.064453
0.085938
0.064453
0.0058594
-0.035156
-0.074219
-0.080078
-0.064453
-0.089844
-0.080078
-0.089844
-0.0039063
0.044922
0.076172
-0.13867
-0.4043
-0.49805
-0.49805
-0.49805
-0.41406
-0.27344
-0.16406
-0.11523
-0.080078
-0.058594
-0.048828
-0.054688
-0.039063
-0.035156
-0.029297
-0.039063
-0.054688
-0.058594
-0.025391
-0.058594
-0.064453
-0.070313
-0.058594
-0.064453
-0.039063
-0.035156
-0.048828
-0.044922
-0.029297
-0.013672
-0.048828
-0.048828
-0.070313
-0.080078
-0.10938
-0.10352
-0.099609
-0.11523
-0.11914
-0.125
-0.12891
-0.11914
-0.10938
-0.11523
-0.099609
-0.09375
-0.11914
-0.10938
-0.080078
-0.09375
-0.089844
-0.074219
-0.074219
-0.064453
-0.048828
-0.048828
-0.048828
-0.044922
-0.054688
-0.044922
-0.039063
-0.039063
-0.035156
-0.048828
-0.029297
-0.048828
-0.048828
-0.035156
-0.013672
-0.0039063
0.019531
0.03125
0.041016
0.060547
0.054688
0.085938
0.089844
0.03125
-0.0039063
0
-0.074219
-0.074219
-0.074219
-0.074219
-0.074219
-0.0097656
0.064453
0.099609
-0.0097656
-0.27344
-0.48438
-0.49805
-0.49805
-0.46484
-0.32422
-0.16992
-0.11914
-0.083984
-0.070313
-0.048828
-0.039063
-0.025391
-0.013672
-0.0039063
0
-0.039063
-0.029297
-0.025391
-0.019531
-0.025391
-0.013672
-0.025391
-0.019531
-0.025391
-0.025391
-0.013672
0
0.0097656
0
0.015625
0.019531
-0.0039063
-0.019531
-0.039063
-0.019531
-0.029297
-0.044922
-0.039063
-0.054688
-0.064453
-0.054688
-0.044922
-0.029297
-0.025391
-0.044922
-0.019531
0
-0.025391
-0.029297
0
-0.0039063
0.0058594
0
-0.0097656
0
0.015625
0.0097656
0.0058594
0.019531
0.019531
0.019531
0.025391
0.019531
0.041016
0.019531
0.0097656
0.0058594
0
0.019531
0.03125
0.050781
0.060547
0.089844
0.095703
0.11523
0.12109
0.14453
0.17578
0.11133
0.064453
0.054688
0.0097656
0
0
-0.0097656
-0.0097656
0.044922
0.11523
0.15625
0.0058594
-0.25
-0.46484
-0.49805
-0.46875
-0.375
-0.22852
-0.089844
-0.039063
-0.0097656
0.0097656
0.0097656
0.019531
0.015625
0.0097656
0.015625
0.03125
0.019531
0.019531
0.019531
0.019531
0.044922
0.019531
0.03125
0.0058594
0.015625
0.041016
0.041016
0.044922
0.076172
0.080078
0.070313
0.054688
0.035156
0.044922
0.019531
-0.0039063
0
-0.0097656
-0.0039063
-0.035156
-0.039063
-0.0097656
0.0058594
-0.0097656
0.0058594
0.025391
0.0097656
0.019531
0.03125
0.041016
0.050781
0.044922
0.050781
0.070313
0.064453
0.080078
0.070313
0.076172
0.089844
0.080078
0.070313
0.085938
0.064453
0.050781
0.060547
0.054688
0.044922
0.041016
0.041016
0.050781
0.070313
0.095703
0.10547
0.13086
0.14063
0.15039
0.16602
0.16016
0.099609
0.050781
0.035156
-0.0039063
-0.025391
-0.025391
-0.025391
-0.035156
0.025391
0.076172
0.11523
-0.054688
-0.33008
-0.49805
-0.49805
-0.49805
-0.41406
-0.26367
-0.10938
-0.054688
-0.035156
-0.044922
-0.029297
-0.035156
-0.029297
-0.013672
-0.0039063
0
-0.0097656
0.019531
-0.0039063
-0.0039063
-0.013672
-0.019531
-0.013672
-0.013672
-0.019531
-0.0039063
0
0.035156
0
0.0058594
0
-0.0097656
-0.0097656
-0.025391
-0.044922
-0.044922
-0.048828
-0.054688
-0.058594
-0.074219
-0.074219
-0.064453
-0.048828
-0.054688
-0.064453
-0.070313
-0.048828
-0.048828
-0.039063
-0.035156
-0.0097656
-0.0039063
0.015625
0.019531
0.0097656
0.035156
0.044922
0.035156
0.03125
0.035156
0.019531
0.035156
0.03125
0.041016
0.035156
0.044922
0.025391
0.050781
0.041016
0.044922
0.041016
0.076172
0.076172
0.089844
0.095703
0.099609
0.11523
0.10547
0.050781
0.035156
0.025391
0.0097656
0.0058594
0.0097656
0
0.044922
0.11133
0.15625
0.060547
-0.22461
-0.46875
-0.49805
-0.49805
-0.45898
-0.34375
-0.21484
-0.14453
-0.11914
-0.09375
-0.080078
-0.064453
-0.044922
-0.044922
-0.039063
0
-0.039063
-0.035156
-0.013672
-0.019531
-0.035156
-0.029297
-0.039063
-0.029297
-0.025391
-0.019531
-0.0097656
0.0058594
0.0097656
0.015625
0.019531
0.0097656
0.015625
0.019531
0.0097656
-0.0039063
-0.013672
-0.0039063
-0.025391
-0.025391
-0.044922
-0.048828
-0.048828
-0.083984
-0.09375
-0.074219
-0.080078
-0.074219
-0.058594
-0.029297
-0.044922
-0.029297
-0.019531
0
0.019531
0.041016
0.050781
0.080078
0.099609
0.095703
0.11523
0.13086
0.13477
0.125
0.10547
0.095703
0.095703
0.064453
0.044922
0.060547
0.064453
0.060547
0.089844
0.089844
0.089844
0.085938
0.10547
0.095703
0.11523
0.064453
0.03125
-0.0039063
-0.0097656
0
0.0058594
0.019531
0.025391
0.11133
0.16602
0.19531
0.015625
-0.24414
-0.4082
-0.43359
-0.39844
-0.29883
-0.11914
0
0.064453
0.11133
0.125
0.14063
0.16016
0.18555
0.20117
0.2207
0.17578
0.11523
0.099609
0.10547
0.089844
0.10547
0.11133
0.11523
0.12109
0.16992
0.17578
0.15625
0.16016
0.15039
0.14063
0.12109
0.14453
0.10547
0.064453
0.03125
0.019531
0
-0.013672
-0.035156
-0.029297
-0.039063
-0.054688
-0.064453
-0.070313
-0.044922
-0.039063
-0.035156
-0.0097656
0.0097656
0.044922
0.070313
0.085938
0.076172
0.095703
0.089844
0.11523
0.13477
0.15039
0.15039
0.14063
0.17578
0.16602
0.16992
0.16016
0.17969
0.17578
0.16992
0.16016
0.18945
0.2207
0.22461
0.23047
0.25977
0.25586
0.27539
0.2793
0.2793
0.30078
0.25977
0.19531
0.16992
0.14063
0.11523
0.14063
0.16016
0.16602
0.14453
0.21094
0.25
0.16016
-0.070313
-0.25977
-0.37891
-0.39844
-0.33008
-0.18945
-0.025391
0.035156
0.054688
0.064453
0.076172
0.070313
0.099609
0.089844
0.070313
0.080078
0.099609
0.070313
0.080078
0.085938
0.076172
0.070313
0.070313
0.080078
0.085938
0.076172
0.080078
0.070313
0.080078
0.070313
0.080078
0.085938
0.064453
0.064453
0.054688
0.03125
0.025391
0.015625
0.0097656
0
-0.0039063
-0.0097656
-0.029297
-0.025391
-0.035156
-0.019531
-0.0097656
-0.013672
0.015625
0.044922
0.070313
0.080078
0.11133
0.12109
0.14453
0.17969
0.20508
0.21094
0.24023
0.23047
0.24023
0.25586
0.25586
0.23438
0.23047
0.21094
0.19531
0.16016
0.16602
0.18945
0.17578
0.20117
0.20508
0.18555
0.18945
0.17969
0.16602
0.15625
0.10547
0.035156
0.0097656
-0.035156
-0.044922
-0.064453
-0.058594
-0.083984
0.0058594
0.044922
0.076172
-0.16406
-0.44336
-0.49805
-0.49805
-0.49805
-0.49414
-0.31445
-0.20508
-0.14844
-0.11523
-0.10938
-0.11523
-0.089844
-0.11914
-0.11914
-0.12891
-0.12891
-0.13867
-0.14453
-0.14453
-0.13477
-0.10938
-0.089844
-0.074219
-0.083984
-0.074219
-0.058594
-0.044922
-0.039063
-0.025391
-0.025391
-0.029297
-0.035156
-0.048828
-0.064453
-0.074219
-0.083984
-0.080078
-0.11914
-0.11523
-0.12891
-0.125
-0.10352
-0.09375
-0.09375
-0.070313
-0.058594
-0.058594
-0.054688
-0.013672
-0.039063
-0.048828
-0.035156
-0.025391
-0.013672
-0.0097656
0.0097656
0
0.015625
0.054688
0.060547
0.044922
0.070313
0.089844
0.095703
0.054688
0.064453
0.076172
0.089844
0.10547
0.13477
0.15625
0.16016
0.14063
0.13086
0.125
0.13086
0.085938
0.019531
-0.048828
-0.11914
-0.17383
-0.20508
-0.24023
-0.26953
-0.28516
-0.25
-0.21484
-0.16406
-0.33008
-0.49805
-0.49805
-0.49805
-0.49805
-0.49805
-0.49805
-0.45898
-0.39453
-0.37891
-0.35352
-0.34961
-0.30859
-0.28516
-0.26953
-0.24023
-0.20898
-0.17969
-0.14844
-0.12891
-0.09375
-0.070313
-0.029297
0.03125
0.10547
0.18945
0.27539
0.39063
0.53516
0.72461
0.88477
1.0586
1.2539
1.5
1.5
1.5
1.5
1.5
1.5
1.5
1.5
1.5
1.5
1.5
1.5
1.5
1.4746
1.2598
1.0254
0.68555
0.35547
-0.0097656
-0.34375
-0.49805
-0.49805
-0.49805
-0.31836
-0.29492
-0.44336
-0.46484
-0.44336
-0.47852
-0.49414
-0.49805
-0.49805
-0.49805
-0.49805
-0.49805
-0.49805
-0.49805
-0.49805
-0.49805
-0.49805
-0.49805
-0.49805
-0.49805
-0.49805
-0.49805
-0.49805
-0.45898
-0.47461
-0.48438
-0.49414
-0.49805
-0.49805
-0.49414
-0.47852
-0.45898
-0.41406
-0.33984
-0.29492
-0.34375
-0.49805
-0.49805
-0.49805
-0.49805
-0.49805
-0.49805
-0.43945
-0.34961
-0.32422
-0.30469
-0.29492
-0.28906
-0.25
-0.25391
-0.25977
-0.25977
-0.25391
-0.23438
-0.23438
-0.22461
-0.21484
-0.21875
-0.22852
-0.18945
-0.19336
-0.16992
-0.16016
-0.16406
-0.16406
-0.14453
-0.14844
-0.16016
-0.17383
-0.19922
-0.20898
-0.19336
-0.20508
-0.17383
-0.19922
-0.19336
-0.20898
-0.18945
-0.17969
-0.16992
-0.14844
-0.13477
-0.13867
-0.11914
-0.10938
-0.099609
-0.10352
-0.089844
-0.074219
-0.058594
-0.048828
-0.064453
-0.070313
-0.035156
-0.025391
-0.035156
-0.025391
-0.029297
-0.013672
-0.025391
-0.0097656
-0.0097656
-0.019531
-0.0097656
-0.035156
-0.0097656
0.0097656
0.019531
0.044922
0.080078
0.089844
0.099609
0.12109
0.14063
0.11523
0.054688
0
-0.025391
-0.025391
-0.025391
-0.039063
-0.019531
-0.025391
0.089844
0.14453
0.16016
-0.17383
-0.39453
-0.47461
-0.48828
-0.38867
-0.25977
-0.099609
-0.019531
0.0058594
0.044922
0.054688
0.064453
0.070313
0.054688
0.064453
0.050781
0.050781
0.041016
0.060547
0.064453
0.050781
0.054688
0.089844
0.080078
0.070313
0.080078
0.11133
0.085938
0.099609
0.089844
0.095703
0.099609
0.076172
0.054688
0.050781
0.070313
0.03125
0.044922
0.041016
0.035156
0.050781
0.044922
0.041016
0.044922
0.041016
0.050781
0.044922
0.064453
0.050781
0.080078
0.099609
0.085938
0.076172
0.085938
0.080078
0.085938
0.076172
0.085938
0.095703
0.10547
0.11133
0.095703
0.11133
0.085938
0.070313
0.064453
0.070313
0.064453
0.070313
0.050781
0.080078
0.10547
0.125
0.14453
0.16016
0.15625
0.17969
0.18555
0.13086
0.070313
0.035156
0
-0.019531
-0.025391
-0.029297
-0.025391
0.019531
0.099609
0.14453
0.0058594
-0.26367
-0.48438
-0.49805
-0.49805
-0.41406
-0.25391
-0.13477
-0.058594
-0.039063
-0.0039063
-0.0097656
-0.0039063
-0.0039063
0
-0.0039063
-0.0039063
0
-0.0097656
0.03125
0.0097656
0.0058594
0.015625
0.044922
0.041016
0.044922
0.035156
0.060547
0.054688
0.070313
0.050781
0.035156
0.025391
0.0097656
-0.013672
-0.0097656
-0.0097656
-0.029297
-0.039063
-0.035156
-0.048828
-0.048828
-0.064453
-0.058594
-0.058594
-0.054688
-0.074219
-0.054688
-0.044922
-0.048828
-0.025391
-0.035156
0
0
-0.0039063
-0.013672
0
-0.0039063
-0.0097656
0
-0.0097656
-0.0039063
0
-0.0039063
0.0058594
0
-0.0097656
-0.0039063
-0.0097656
-0.013672
0.0097656
0.025391
0.076172
0.060547
0.050781
0.076172
0.10547
0.10547
0.085938
0.044922
-0.013672
-0.039063
-0.058594
-0.054688
-0.044922
-0.058594
-0.080078
0.015625
0.060547
0.095703
-0.11523
-0.39453
-0.49805
-0.49805
-0.49805
-0.43359
-0.26953
-0.16406
-0.125
-0.10352
-0.080078
-0.058594
-0.074219
-0.080078
-0.070313
-0.054688
-0.074219
-0.080078
-0.064453
-0.048828
-0.044922
-0.048828
-0.029297
-0.039063
-0.029297
-0.019531
0.0058594
-0.0039063
0
-0.0039063
0
-0.019531
-0.013672
-0.044922
-0.039063
-0.029297
-0.048828
-0.058594
-0.070313
-0.044922
-0.039063
-0.058594
-0.064453
-0.044922
-0.048828
-0.044922
-0.048828
-0.029297
-0.029297
-0.025391
-0.029297
0
-0.025391
-0.0039063
-0.013672
-0.013672
-0.0039063
0
-0.0097656
0
-0.0039063
-0.0039063
0.0058594
0.0058594
0
0
-0.0039063
0.0058594
-0.013672
-0.029297
-0.025391
-0.0039063
0.015625
0.03125
0.054688
0.064453
0.080078
0.089844
0.10547
0.11523
0.080078
0.0097656
-0.029297
-0.054688
-0.048828
-0.048828
-0.048828
-0.058594
-0.013672
0.050781
0.089844
-0.0039063
-0.26367
-0.49414
-0.49805
-0.49805
-0.45313
-0.31836
-0.14453
-0.070313
-0.039063
-0.0097656
-0.0039063
0.0097656
-0.0097656
-0.0039063
0.019531
0.019531
0.019531
0.025391
0.035156
0.041016
0.041016
0.054688
0.064453
0.064453
0.076172
0.070313
0.080078
0.060547
0.064453
0.060547
0.064453
0.054688
0.025391
-0.0097656
0
-0.0097656
-0.0039063
0
-0.0097656
-0.013672
0
-0.0039063
0.015625
0.019531
-0.0039063
-0.013672
-0.0039063
0.0058594
0.019531
0.015625
0.0058594
0.035156
0.019531
0.03125
0.025391
0.041016
0.035156
0.060547
0.076172
0.050781
0.050781
0.044922
0.041016
0.025391
0.015625
0.015625
0.0058594
0
0.0058594
0.03125
0.019531
0.041016
0.054688
0.070313
0.099609
0.11523
0.13477
0.125
0.13477
0.050781
0
-0.025391
-0.044922
-0.029297
-0.044922
-0.070313
-0.083984
0.0097656
0.064453
0.085938
-0.13867
-0.39844
-0.49805
-0.49805
-0.49805
-0.42383
-0.21875
-0.11523
-0.099609
-0.074219
-0.048828
-0.029297
-0.035156
-0.029297
-0.035156
-0.025391
-0.035156
-0.029297
-0.019531
-0.0097656
-0.0039063
-0.013672
-0.0097656
-0.013672
0
0.019531
0.044922
0.035156
0.025391
0.019531
0.019531
0.019531
0.03125
0.0097656
-0.0097656
-0.025391
-0.035156
-0.029297
-0.039063
-0.039063
-0.029297
-0.029297
-0.013672
-0.029297
-0.019531
-0.025391
-0.013672
0
-0.0097656
-0.0097656
0.0058594
0.0097656
0.0058594
0.015625
0.015625
0.0097656
0.025391
0.035156
0.025391
0.03125
0.041016
0.035156
0.060547
0.041016
0.035156
0.050781
0.041016
0.035156
0.03125
0.050781
0.070313
0.080078
0.11133
0.14453
0.14063
0.14063
0.15625
0.16992
0.17578
0.099609
0.050781
0.03125
0.0058594
-0.0097656
-0.013672
0.0097656
0
0.064453
0.12109
0.15039
-0.054688
-0.31836
-0.46484
-0.46484
-0.42383
-0.31836
-0.13867
-0.029297
0.015625
0.03125
0.054688
0.064453
0.060547
0.076172
0.076172
0.080078
0.060547
0.03125
0.035156
0.054688
0.044922
0.035156
0.044922
0.050781
0.041016
0.054688
0.064453
0.060547
0.076172
0.050781
0.03125
0.015625
0.0058594
-0.0097656
-0.025391
-0.035156
-0.054688
-0.058594
-0.048828
-0.039063
-0.048828
-0.058594
-0.039063
-0.048828
-0.035156
-0.048828
-0.029297
-0.025391
-0.029297
-0.035156
-0.025391
-0.013672
0
-0.0097656
0
0.0058594
0.0058594
0
0.015625
0.0097656
0.015625
-0.019531
-0.013672
-0.0097656
-0.0097656
-0.0097656
-0.019531
-0.013672
-0.035156
-0.025391
-0.019531
-0.013672
0.025391
0.035156
0.03125
0.064453
0.060547
0.076172
0.089844
0.025391
-0.025391
-0.054688
-0.070313
-0.09375
-0.080078
-0.070313
-0.089844
-0.013672
0.041016
0.089844
-0.048828
-0.34961
-0.49805
-0.49805
-0.49805
-0.45898
-0.29492
-0.16406
-0.09375
-0.074219
-0.064453
-0.074219
-0.054688
-0.048828
-0.054688
-0.044922
-0.054688
-0.070313
-0.058594
-0.044922
-0.054688
-0.048828
-0.035156
-0.025391
-0.044922
-0.039063
-0.044922
-0.039063
-0.025391
-0.0097656
-0.019531
-0.029297
-0.044922
-0.058594
-0.054688
-0.080078
-0.09375
-0.089844
-0.083984
-0.11914
-0.125
-0.10938
-0.09375
-0.10938
-0.09375
-0.09375
-0.074219
-0.080078
-0.064453
-0.058594
-0.048828
-0.064453
-0.054688
-0.035156
-0.044922
-0.035156
-0.025391
-0.025391
-0.019531
-0.035156
-0.025391
-0.019531
-0.025391
-0.054688
-0.048828
-0.054688
-0.058594
-0.048828
-0.058594
-0.054688
-0.070313
-0.080078
-0.064453
-0.054688
-0.0097656
-0.013672
0.0058594
0.041016
0.044922
0.054688
0.060547
0.019531
-0.039063
-0.074219
-0.089844
-0.083984
-0.11914
-0.11523
-0.12891
-0.070313
0
0.041016
-0.10938
-0.36914
-0.49805
-0.49805
-0.49805
-0.48438
-0.31445
-0.19336
-0.13477
-0.089844
-0.080078
-0.074219
-0.080078
-0.083984
-0.074219
-0.083984
-0.080078
-0.074219
-0.089844
-0.083984
-0.054688
-0.074219
-0.064453
-0.058594
-0.048828
-0.064453
-0.035156
-0.048828
-0.054688
-0.039063
-0.048828
-0.035156
-0.074219
-0.080078
-0.083984
-0.10352
-0.11523
-0.099609
-0.13477
-0.13867
-0.13477
-0.11914
-0.10352
-0.10352
-0.10938
-0.11523
-0.11914
-0.089844
-0.10352
-0.083984
-0.080078
-0.074219
-0.064453
-0.064453
-0.064453
-0.048828
-0.039063
-0.029297
-0.035156
-0.025391
-0.048828
-0.029297
-0.054688
-0.048828
-0.054688
-0.074219
-0.083984
-0.058594
-0.074219
-0.074219
-0.044922
-0.029297
-0.039063
-0.025391
0
0.0097656
0.019531
0
0.0097656
-0.0097656
-0.054688
-0.083984
-0.09375
-0.11523
-0.11914
-0.10352
-0.10938
-0.064453
0.0097656
0.054688
-0.039063
-0.29883
-0.49805
-0.49805
-0.49805
-0.47461
-0.34961
-0.18359
-0.125
-0.080078
-0.074219
-0.054688
-0.044922
-0.029297
-0.035156
-0.025391
-0.044922
-0.029297
-0.025391
-0.029297
-0.0039063
0
0
0
0.0058594
0.019531
0.019531
0.03125
0.044922
0.025391
0.041016
0.019531
0.019531
0.0097656
0.015625
-0.025391
-0.029297
-0.013672
-0.029297
-0.019531
-0.048828
-0.044922
-0.048828
-0.044922
-0.025391
-0.019531
-0.039063
-0.029297
-0.0097656
0
0
0.015625
0
0.019531
0.035156
0.041016
0.025391
0.044922
0.050781
0.054688
0.044922
0.076172
0.050781
0.044922
0.041016
0.041016
0.025391
0.035156
0.015625
0.0058594
0.025391
0.019531
0.064453
0.080078
0.099609
0.12109
0.125
0.14063
0.13477
0.095703
0.054688
0.035156
-0.0097656
-0.039063
-0.025391
-0.019531
-0.0097656
0.041016
0.099609
0.15039
-0.0039063
-0.26953
-0.45898
-0.47852
-0.49805
-0.38867
-0.22852
-0.09375
-0.025391
0.0058594
0.019531
0.015625
0.0097656
0.019531
0.015625
0.019531
0.015625
0.044922
0.019531
0.03125
0.041016
0.025391
0.03125
0.044922
0.050781
0.044922
0.050781
0.054688
0.050781
0.089844
0.095703
0.041016
0.044922
0.015625
0
-0.013672
-0.019531
-0.039063
-0.048828
-0.054688
-0.048828
-0.054688
-0.058594
-0.039063
-0.054688
-0.074219
-0.048828
-0.044922
-0.035156
-0.029297
-0.025391
-0.019531
0
0.0097656
-0.0039063
0.0097656
0.0058594
0.019531
0.0097656
0.019531
0.0097656
0.0097656
0.0097656
0.019531
0.0058594
0.015625
0.0058594
0
-0.0039063
-0.0097656
0.015625
0.019531
0.035156
0.044922
0.044922
0.076172
0.070313
0.085938
0.095703
0.054688
0.0058594
-0.025391
-0.048828
-0.074219
-0.048828
-0.048828
-0.044922
-0.013672
0.044922
0.095703
0.10547
-0.22461
-0.45313
-0.49805
-0.49805
-0.47461
-0.36914
-0.20508
-0.10938
-0.074219
-0.064453
-0.054688
-0.058594
-0.039063
-0.035156
-0.035156
-0.039063
-0.054688
-0.064453
-0.048828
-0.054688
-0.039063
-0.035156
-0.054688
-0.048828
-0.044922
-0.048828
-0.025391
-0.025391
-0.025391
-0.019531
-0.013672
-0.025391
-0.035156
-0.054688
-0.080078
-0.09375
-0.080078
-0.089844
-0.099609
-0.09375
-0.10938
-0.080078
-0.099609
-0.10352
-0.080078
-0.070313
-0.074219
-0.058594
-0.039063
-0.029297
-0.048828
-0.025391
-0.025391
-0.013672
-0.013672
0
0
0.019531
0.019531
0.019531
0.019531
0.041016
0.044922
0.060547
0.070313
0.0097656
0.015625
0.019531
0.025391
0.019531
0.015625
0.0097656
0.035156
0.060547
0.080078
0.085938
0.099609
0.11133
0.125
0.14063
0.13086
0.10547
0.064453
0.019531
-0.0097656
-0.025391
-0.019531
-0.035156
-0.029297
0.035156
0.085938
0.11523
0.0058594
-0.26367
-0.48438
-0.49805
-0.49805
-0.41992
-0.26953
-0.11914
-0.054688
-0.025391
-0.013672
-0.0097656
-0.0039063
-0.013672
0.0097656
0.015625
-0.0097656
-0.013672
-0.0097656
0
0.015625
0.041016
0.019531
0
0.0058594
0.019531
0.044922
0.019531
0.019531
0.025391
0.041016
0.019531
0.025391
0.0058594
0
-0.013672
-0.035156
-0.044922
-0.048828
-0.058594
-0.048828
-0.054688
-0.025391
-0.044922
-0.048828
-0.054688
-0.044922
-0.035156
-0.019531
0
0.015625
0
0.019531
0
0.019531
0.035156
0.044922
0.044922
0.044922
0.041016
0.035156
0.054688
0.054688
0.060547
0.035156
0.044922
0.025391
0.041016
0.044922
0.025391
0.050781
0.070313
0.070313
0.085938
0.11133
0.13477
0.14453
0.15625
0.16602
0.15039
0.099609
0.050781
0.019531
0.035156
0
-0.0097656
0
0.044922
0.13086
0.18945
0.076172
-0.19336
-0.39844
-0.46875
-0.47461
-0.35938
-0.23438
-0.080078
0
0.035156
0.044922
0.044922
0.050781
0.060547
0.041016
0.050781
0.070313
0.080078
0.085938
0.070313
0.089844
0.11133
0.099609
0.095703
0.10547
0.095703
0.089844
0.11133
0.099609
0.12109
0.11133
0.099609
0.11523
0.11133
0.085938
0.080078
0.089844
0.070313
0.064453
0.044922
0.050781
0.041016
0.050781
0.064453
0.080078
0.070313
0.054688
0.044922
0.064453
0.060547
0.076172
0.089844
0.076172
0.080078
0.076172
0.095703
0.089844
0.10547
0.095703
0.125
0.13477
0.10547
0.089844
0.095703
0.10547
0.11133
0.095703
0.089844
0.076172
0.070313
0.080078
0.11523
0.11133
0.13477
0.14063
0.16016
0.17578
0.18555
0.18945
0.17969
0.12109
0.099609
0.041016
0.035156
0.019531
0
0.0097656
0.015625
0.095703
0.14453
0.17969
-0.039063
-0.2793
-0.44336
-0.46875
-0.44922
-0.33984
-0.16406
-0.029297
0.025391
0.044922
0.044922
0.044922
0.041016
0.050781
0.060547
0.060547
0.054688
0.064453
0.080078
0.070313
0.085938
0.089844
0.085938
0.095703
0.10547
0.099609
0.11523
0.11523
0.13477
0.11523
0.11133
0.095703
0.089844
0.080078
0.064453
0.054688
0.044922
0.035156
0.044922
0.03125
0.041016
0.025391
0.050781
0.041016
0.035156
0.054688
0.050781
0.041016
0.03125
0.044922
0.044922
0.064453
0.070313
0.070313
0.080078
0.099609
0.089844
0.10547
0.099609
0.125
0.095703
0.10547
0.12109
0.125
0.12109
0.13477
0.11523
0.125
0.11523
0.12109
0.15039
0.14453
0.15039
0.16602
0.18945
0.18555
0.20508
0.2207
0.21484
0.19531
0.15039
0.099609
0.070313
0.070313
0.035156
0.044922
0.044922
0.050781
0.12109
0.17969
0.21094
-0.080078
-0.33398
-0.46875
-0.48828
-0.43359
-0.33008
-0.1543
-0.025391
0.0058594
0
0.041016
0.035156
0.044922
0.03125
0.025391
0.0097656
0.0058594
0.0058594
0.015625
0
0.025391
0.019531
0.0058594
0.0058594
0.0097656
0
0
0
0.0058594
0.015625
-0.0097656
-0.025391
-0.039063
-0.029297
-0.048828
-0.074219
-0.089844
-0.080078
-0.09375
-0.089844
-0.10352
-0.099609
-0.099609
-0.09375
-0.10352
-0.089844
-0.080078
-0.054688
-0.048828
-0.035156
-0.058594
-0.074219
-0.070313
-0.058594
-0.048828
-0.048828
-0.035156
-0.029297
-0.035156
-0.025391
-0.029297
-0.025391
-0.025391
-0.044922
-0.019531
-0.029297
-0.054688
-0.064453
-0.064453
-0.070313
-0.074219
-0.064453
-0.070313
-0.048828
-0.029297
-0.0039063
0.0097656
0.019531
0
0.025391
0.044922
0.041016
-0.0097656
-0.054688
-0.089844
-0.10352
-0.10352
-0.11914
-0.10938
-0.11523
-0.029297
0.019531
0.041016
-0.22852
-0.47461
-0.49805
-0.49805
-0.49805
-0.43359
-0.24023
-0.13867
-0.10352
-0.089844
-0.080078
-0.074219
-0.070313
-0.074219
-0.054688
-0.064453
-0.074219
-0.044922
-0.064453
-0.039063
-0.039063
-0.025391
-0.025391
-0.019531
-0.048828
-0.029297
-0.035156
-0.029297
-0.025391
-0.0097656
-0.025391
-0.029297
-0.044922
-0.054688
-0.080078
-0.074219
-0.09375
-0.11523
-0.11914
-0.10938
-0.080078
-0.099609
-0.10352
-0.09375
-0.099609
-0.10352
-0.09375
-0.083984
-0.070313
-0.074219
-0.070313
-0.074219
-0.054688
-0.039063
-0.019531
-0.035156
-0.0097656
0.0097656
0
0
0
0.0097656
-0.013672
-0.025391
-0.025391
-0.019531
-0.035156
-0.0039063
-0.019531
-0.025391
-0.025391
0
0.041016
0.060547
0.076172
0.11523
0.089844
0.085938
0.10547
0.064453
0.0058594
-0.0039063
-0.039063
-0.044922
-0.048828
-0.054688
-0.064453
0.025391
0.085938
0.11133
-0.070313
-0.34375
-0.49805
-0.49805
-0.49414
-0.4043
-0.23438
-0.10352
-0.054688
-0.039063
-0.013672
-0.025391
0.0058594
-0.013672
-0.0039063
0
-0.0097656
0.019531
0.025391
-0.0039063
0
0.0097656
0
0
0.019531
0.025391
0.025391
0.025391
0.019531
0.019531
0.044922
0.050781
0.035156
0.019531
0.019531
0.0097656
0
-0.013672
-0.0097656
-0.013672
-0.019531
-0.0097656
-0.019531
0.0058594
-0.013672
-0.0097656
-0.025391
-0.0097656
0.0058594
0
0.0058594
0.015625
0.03125
0.035156
0.044922
0.041016
0.041016
0.041016
0.044922
0.054688
0.060547
0.050781
0.070313
0.054688
0.050781
0.03125
0.041016
0.019531
0.015625
-0.0039063
0.019531
0.03125
0.076172
0.095703
0.089844
0.11523
0.14063
0.14453
0.12109
0.076172
0.019531
-0.0039063
-0.025391
-0.0097656
-0.029297
-0.035156
-0.039063
0.035156
0.080078
0.13086
-0.048828
-0.29883
-0.48438
-0.49805
-0.49805
-0.41406
-0.25
-0.10938
-0.064453
-0.025391
-0.0097656
-0.019531
-0.0039063
-0.013672
0.0058594
0.019531
-0.0039063
-0.0097656
0.0058594
0
0.0058594
0
-0.0039063
0
0.0058594
0
0
0.019531
-0.0039063
-0.013672
-0.019531
-0.013672
-0.025391
-0.039063
-0.048828
-0.064453
-0.074219
-0.070313
-0.074219
-0.080078
-0.10938
-0.11523
-0.09375
-0.10938
-0.11523
-0.089844
-0.09375
-0.083984
-0.074219
-0.054688
-0.054688
-0.035156
-0.039063
-0.035156
-0.019531
-0.019531
-0.0097656
0.0097656
0
0.0097656
0.015625
0.0058594
0.015625
0.0058594
0.015625
0
0.0058594
-0.0097656
0
-0.019531
0
0.0097656
0.019531
0.03125
0.050781
0.076172
0.089844
0.10547
0.11523
0.089844
0.050781
0.0058594
-0.044922
-0.058594
-0.058594
-0.080078
-0.058594
-0.019531
0.064453
0.11133
0.125
-0.16406
-0.42383
-0.49805
-0.49805
-0.49805
-0.41992
-0.21875
-0.14844
-0.10938
-0.09375
-0.054688
-0.048828
-0.039063
-0.025391
-0.035156
-0.039063
-0.035156
-0.048828
-0.029297
-0.019531
-0.035156
-0.025391
-0.035156
-0.029297
-0.025391
-0.019531
-0.025391
0.0097656
0
0
-0.025391
-0.013672
-0.025391
-0.019531
-0.039063
-0.039063
-0.044922
-0.054688
-0.074219
-0.058594
-0.048828
-0.054688
-0.058594
-0.019531
-0.044922
-0.035156
-0.013672
0
0.015625
0
0.025391
0.041016
0.054688
0.044922
0.064453
0.060547
0.054688
0.076172
0.089844
0.076172
0.070313
0.076172
0.085938
0.080078
0.089844
0.085938
0.099609
0.089844
0.089844
0.095703
0.070313
0.089844
0.099609
0.125
0.14453
0.15039
0.17969
0.20508
0.21094
0.18945
0.20117
0.15625
0.099609
0.070313
0.064453
0.054688
0.064453
0.080078
0.076172
0.16016
0.18555
0.20508
-0.058594
-0.30469
-0.42383
-0.44336
-0.39453
-0.27344
-0.099609
0.03125
0.050781
0.044922
0.085938
0.095703
0.089844
0.089844
0.080078
0.095703
0.089844
0.095703
0.099609
0.070313
0.076172
0.085938
0.099609
0.095703
0.089844
0.099609
0.11523
0.10547
0.089844
0.095703
0.089844
0.099609
0.11133
0.080078
0.050781
0.03125
0.019531
0.03125
0.0097656
0.0058594
0.0097656
0.019531
0.044922
0.041016
0.015625
0.019531
0.015625
0.035156
0.015625
0.019531
0.035156
0.041016
0.054688
0.050781
0.070313
0.076172
0.080078
0.076172
0.080078
0.089844
0.070313
0.064453
0.044922
0.060547
0.064453
0.050781
0.054688
0.03125
0.03125
0.025391
0.050781
0.070313
0.089844
0.080078
0.099609
0.12109
0.13086
0.14063
0.13477
0.10547
0.060547
0.019531
-0.013672
-0.035156
-0.044922
-0.019531
-0.035156
0.0058594
0.076172
0.15039
0.060547
-0.19922
-0.43359
-0.48828
-0.49805
-0.41406
-0.28906
-0.10352
-0.025391
-0.0039063
0.019531
0.035156
0.044922
0.035156
0.041016
0.035156
0.044922
0.041016
0.044922
0.035156
0.054688
0.050781
0.044922
0.041016
0.064453
0.054688
0.060547
0.064453
0.060547
0.044922
0.050781
0.064453
0.070313
0.050781
0.019531
0.015625
0.0058594
0
-0.0097656
-0.025391
-0.048828
-0.054688
-0.048828
-0.054688
-0.058594
-0.048828
-0.054688
-0.058594
-0.044922
-0.019531
-0.0039063
0
0.019531
0.041016
0.050781
0.070313
0.064453
0.085938
0.10547
0.10547
0.089844
0.089844
0.089844
0.099609
0.10547
0.095703
0.089844
0.080078
0.085938
0.070313
0.076172
0.089844
0.11133
0.12109
0.11523
0.13086
0.14453
0.17578
0.18555
0.14453
0.076172
0.035156
-0.0039063
-0.039063
-0.044922
-0.058594
-0.054688
-0.039063
0.050781
0.089844
0.099609
-0.21484
-0.46484
-0.49805
-0.49805
-0.49805
-0.39844
-0.20898
-0.13477
-0.09375
-0.083984
-0.058594
-0.048828
-0.048828
-0.048828
-0.048828
-0.054688
-0.058594
-0.054688
-0.058594
-0.029297
-0.019531
-0.025391
-0.048828
-0.044922
-0.013672
-0.025391
-0.029297
-0.013672
-0.013672
0
-0.013672
-0.025391
-0.048828
-0.070313
-0.070313
-0.089844
-0.083984
-0.09375
-0.11523
-0.10938
-0.11914
-0.10938
-0.11914
-0.10938
-0.125
-0.11523
-0.10352
-0.11914
-0.11914
-0.10938
-0.11914
-0.09375
-0.089844
-0.074219
-0.070313
-0.080078
-0.054688
-0.048828
-0.029297
-0.025391
-0.0039063
-0.0097656
0.0058594
0.0058594
0
0.0058594
0.0097656
-0.013672
0.0058594
0
0.025391
0.044922
0.060547
0.070313
0.095703
0.10547
0.099609
0.12109
0.13086
0.085938
0.050781
0.0058594
-0.0097656
-0.019531
-0.025391
-0.025391
-0.019531
0.050781
0.11133
0.16992
0.035156
-0.22852
-0.42969
-0.47852
-0.49414
-0.39844
-0.24023
-0.10352
-0.048828
-0.0039063
0
-0.013672
0
0.0058594
0.019531
0.019531
0.0097656
0
0.019531
0.03125
0.019531
0.03125
0.035156
0.025391
0.03125
0.035156
0.015625
0.0097656
0.019531
0.0058594
0.015625
0
-0.029297
-0.048828
-0.048828
-0.044922
-0.048828
-0.054688
-0.058594
-0.044922
-0.048828
-0.025391
-0.0039063
-0.019531
-0.0097656
0.0097656
0.0058594
0.025391
0.035156
0.054688
0.064453
0.095703
0.10547
0.11523
0.13477
0.15625
0.16602
0.14063
0.16992
0.18945
0.20117
0.17969
0.20117
0.19531
0.21094
0.2207
0.21094
0.2207
0.21094
0.19531
0.18555
0.17969
0.20508
0.20117
0.21484
0.23047
0.25977
0.29492
0.32031
0.32422
0.29492
0.22461
0.18945
0.17969
0.20117
0.24023
0.25586
0.19531
0.16016
0.14453
0.015625
-0.16016
-0.49805
-0.49805
-0.49805
-0.49805
-0.49805
-0.18945
0.43945
-0.49805
-0.49805
-0.49805
-0.49805
-0.49805
-0.49805
-0.49805
-0.49805
-0.43359
0.5957
1.5
1.5
1.5
1.5
1.5
1.5
1.5
1.5
1.1191
1.0039
0.98047
0.95508
0.72461
0.44531
0.25
0.10547
0.18555
0.49023
0.78906
1.1836
1.5
1.5
1.5
1.5
1.5
1.5
1.5
1.4883
1.4688
1.3848
1.1738
0.95898
0.68945
0.44922
0.16016
-0.125
-0.34961
-0.49805
-0.49805
-0.49805
-0.49805
-0.49805
-0.49805
-0.49805
-0.49805
-0.49805
-0.49805
-0.49805
-0.49805
-0.49805
-0.49805
-0.49805
-0.49805
-0.49805
-0.49805
-0.49805
-0.49805
-0.49805
-0.49805
-0.49805
-0.49805
-0.46875
-0.48828
-0.46875
-0.48438
-0.44922
-0.41406
-0.38477
-0.34961
-0.29883
-0.19336
-0.10352
-0.070313
-0.2793
-0.49805
-0.49805
-0.49805
-0.49805
-0.42383
-0.23438
-0.11914
-0.048828
-0.0097656
-0.0097656
0
0.0097656
0.019531
0.015625
0.0058594
0.0097656
0.019531
0.035156
0.044922
0.041016
0.064453
0.054688
0.070313
0.070313
0.099609
0.095703
0.11133
0.11523
0.12109
0.11523
0.12109
0.11523
0.089844
0.095703
0.076172
0.070313
0.076172
0.070313
0.076172
0.085938
0.10547
0.13086
0.099609
0.11133
0.095703
0.099609
0.089844
0.089844
0.089844
0.099609
0.11133
0.13477
0.15625
0.18945
0.20117
0.2207
0.25
0.29102
0.36523
0.46094
0.58398
0.65039
0.68555
0.67578
0.66406
0.64063
0.61914
0.65039
0.68945
0.74414
0.84961
0.93945
1.0391
1.1035
1.125
0.96484
0.76953
0.58984
0.43945
0.25977
0.076172
-0.058594
-0.13867
-0.18359
-0.22461
-0.16016
-0.09375
-0.064453
-0.26953
-0.49805
-0.49805
-0.49805
-0.49805
-0.49805
-0.49805
-0.45898
-0.46484
-0.42969
-0.4043
-0.375
-0.37891
-0.34375
-0.33984
-0.35938
-0.4043
-0.46875
-0.48828
-0.49805
-0.47852
-0.49414
-0.49805
-0.48828
-0.48438
-0.49805
-0.49805
-0.49805
-0.49805
-0.49805
-0.49805
-0.49805
-0.49805
-0.49805
-0.49805
-0.49805
-0.49805
-0.49805
-0.49805
-0.49805
-0.48438
-0.44336
-0.41992
-0.38477
-0.34961
-0.33008
-0.30469
-0.26367
-0.23438
-0.22852
-0.20508
-0.16406
-0.12891
-0.099609
-0.09375
-0.054688
-0.039063
-0.029297
-0.0039063
-0.0039063
0.0097656
0.019531
0.025391
0.019531
0.050781
0.060547
0.050781
0.070313
0.060547
0.070313
0.085938
0.12109
0.15039
0.16016
0.18555
0.21484
0.2207
0.2207
0.24023
0.19531
0.14063
0.11133
0.076172
0.050781
0.080078
0.076172
0.070313
0.13477
0.18945
0.23047
0.080078
-0.17969
-0.38867
-0.43359
-0.43945
-0.33398
-0.18359
-0.048828
0.0058594
0.041016
0.070313
0.070313
0.095703
0.095703
0.11133
0.11523
0.10547
0.11523
0.099609
0.099609
0.095703
0.11133
0.12109
0.13086
0.11523
0.11523
0.14063
0.125
0.14063
0.16016
0.16016
0.14063
0.125
0.12109
0.125
0.085938
0.070313
0.064453
0.054688
0.044922
0.041016
0.019531
0.025391
0.015625
0.019531
0.025391
0.044922
0.050781
0.03125
0.015625
0.035156
0.044922
0.054688
0.064453
0.070313
0.080078
0.070313
0.060547
0.080078
0.064453
0.050781
0.050781
0.076172
0.089844
0.044922
0.050781
0.044922
0.050781
0.044922
0.050781
0.035156
0.044922
0.064453
0.099609
0.11133
0.13086
0.14063
0.15039
0.14453
0.15039
0.095703
0.060547
0.03125
-0.0039063
-0.019531
-0.025391
-0.025391
-0.029297
0.035156
0.064453
0.11523
-0.074219
-0.33984
-0.49805
-0.49805
-0.49805
-0.41992
-0.27344
-0.13477
-0.089844
-0.064453
-0.054688
-0.048828
-0.048828
-0.054688
-0.029297
-0.048828
-0.029297
-0.048828
-0.054688
-0.070313
-0.054688
-0.035156
-0.044922
-0.048828
-0.029297
-0.025391
-0.039063
-0.019531
0
-0.025391
-0.039063
-0.013672
-0.025391
-0.044922
-0.048828
-0.058594
-0.044922
-0.089844
-0.10352
-0.10352
-0.099609
-0.09375
-0.10352
-0.11523
-0.11914
-0.083984
-0.09375
-0.089844
-0.099609
-0.048828
-0.080078
-0.074219
-0.058594
-0.039063
-0.019531
-0.035156
-0.044922
-0.013672
0
-0.0097656
-0.013672
-0.0097656
-0.025391
-0.025391
-0.035156
-0.039063
-0.029297
-0.058594
-0.064453
-0.039063
-0.029297
-0.025391
0.0097656
0.0097656
0.044922
0.070313
0.060547
0.064453
0.041016
-0.029297
-0.074219
-0.11914
-0.10938
-0.13477
-0.16406
-0.16992
-0.11914
-0.039063
0.03125
0.060547
-0.25
-0.49805
-0.49805
-0.49805
-0.49805
-0.47852
-0.30469
-0.21875
-0.20508
-0.14844
-0.13477
-0.14453
-0.1543
-0.14844
-0.16016
-0.13867
-0.1543
-0.16406
-0.16406
-0.16406
-0.17969
-0.16406
-0.1543
-0.14453
-0.14453
-0.14453
-0.12891
-0.09375
-0.11523
-0.13477
-0.14453
-0.14453
-0.14453
-0.14844
-0.14453
-0.16406
-0.16992
-0.17969
-0.17383
-0.17383
-0.16406
-0.18359
-0.16406
-0.16992
-0.16406
-0.16016
-0.16992
-0.14453
-0.16016
-0.14844
-0.11914
-0.11523
-0.09375
-0.089844
-0.080078
-0.074219
-0.080078
-0.070313
-0.044922
-0.029297
-0.048828
-0.039063
-0.048828
-0.025391
-0.019531
-0.025391
0
0
-0.0097656
0.0097656
0.015625
0.041016
0.060547
0.054688
0.076172
0.076172
0.080078
0.054688
0
-0.029297
-0.070313
-0.080078
-0.10352
-0.11523
-0.10938
-0.11914
-0.029297
0.015625
0.060547
-0.14453
-0.4082
-0.49805
-0.49805
-0.49805
-0.43945
-0.25977
-0.13477
-0.099609
-0.080078
-0.039063
-0.025391
-0.013672
-0.0039063
0
0.019531
0.025391
0.03125
0.035156
0.025391
0.019531
0.015625
0.019531
0.015625
0.015625
0.0097656
0.03125
-0.0039063
-0.0039063
-0.0097656
-0.0039063
-0.013672
-0.029297
-0.029297
-0.044922
-0.054688
-0.064453
-0.054688
-0.083984
-0.09375
-0.09375
-0.089844
-0.09375
-0.083984
-0.099609
-0.083984
-0.074219
-0.080078
-0.083984
-0.054688
-0.058594
-0.048828
-0.039063
-0.044922
-0.0097656
-0.0039063
-0.029297
-0.013672
-0.0097656
-0.025391
-0.019531
-0.035156
-0.035156
-0.048828
-0.048828
-0.048828
-0.044922
-0.054688
-0.058594
-0.070313
-0.048828
-0.029297
-0.029297
-0.0097656
0.0058594
-0.0039063
0
0.041016
0.044922
0.060547
0.0097656
-0.035156
-0.048828
-0.064453
-0.048828
-0.070313
-0.074219
-0.058594
0.019531
0.095703
0.13477
-0.039063
-0.33398
-0.49805
-0.49805
-0.49805
-0.43359
-0.2793
-0.16992
-0.10938
-0.080078
-0.054688
-0.054688
-0.044922
-0.035156
-0.025391
-0.029297
-0.0097656
-0.025391
-0.029297
-0.039063
-0.035156
-0.025391
-0.035156
-0.044922
-0.013672
-0.029297
-0.035156
-0.029297
-0.035156
-0.0039063
-0.013672
-0.013672
-0.035156
-0.035156
-0.048828
-0.029297
-0.064453
-0.074219
-0.048828
-0.058594
-0.080078
-0.070313
-0.070313
-0.048828
-0.064453
-0.054688
-0.064453
-0.039063
-0.048828
-0.054688
-0.025391
-0.019531
-0.0039063
-0.019531
-0.025391
-0.025391
-0.019531
-0.025391
-0.019531
-0.013672
-0.013672
-0.025391
-0.0097656
-0.013672
0
-0.019531
-0.0039063
-0.019531
-0.0097656
-0.039063
-0.025391
0
0.0058594
0.044922
0.054688
0.085938
0.089844
0.099609
0.11523
0.12109
0.041016
0.019531
-0.0039063
-0.029297
-0.035156
-0.025391
-0.039063
-0.044922
0.041016
0.099609
0.12109
-0.18359
-0.42969
-0.49805
-0.49805
-0.45898
-0.34961
-0.17383
-0.089844
-0.074219
-0.054688
-0.029297
-0.025391
-0.0097656
-0.025391
-0.019531
-0.0039063
-0.0097656
-0.0039063
-0.019531
0.025391
0.015625
-0.0097656
-0.013672
-0.0097656
0
-0.0097656
0.0058594
0.0097656
0.0097656
0.0097656
0.0097656
0.015625
0
-0.0039063
-0.044922
-0.054688
-0.074219
-0.070313
-0.054688
-0.064453
-0.048828
-0.074219
-0.074219
-0.074219
-0.074219
-0.074219
-0.054688
-0.048828
-0.054688
-0.044922
-0.048828
-0.039063
-0.019531
-0.029297
-0.019531
-0.013672
-0.025391
-0.0039063
0.015625
0.019531
0.0058594
0.019531
0.0058594
0.019531
-0.0097656
0
-0.0039063
-0.029297
-0.019531
-0.013672
0
0.025391
0.041016
0.050781
0.076172
0.089844
0.095703
0.11133
0.070313
0.025391
-0.0097656
-0.048828
-0.070313
-0.064453
-0.070313
-0.080078
-0.044922
0.035156
0.064453
0.070313
-0.26367
-0.49805
-0.49805
-0.49805
-0.49805
-0.39453
-0.21484
-0.13477
-0.099609
-0.074219
-0.070313
-0.064453
-0.074219
-0.070313
-0.054688
-0.058594
-0.064453
-0.048828
-0.035156
-0.029297
-0.058594
-0.048828
-0.054688
-0.035156
-0.029297
-0.044922
-0.048828
-0.025391
-0.025391
-0.025391
-0.013672
-0.0097656
-0.054688
-0.064453
-0.054688
-0.074219
-0.074219
-0.089844
-0.09375
-0.083984
-0.09375
-0.080078
-0.074219
-0.058594
-0.070313
-0.054688
-0.064453
-0.058594
-0.029297
-0.025391
-0.039063
-0.025391
-0.029297
-0.013672
-0.0039063
0.0097656
0.015625
0.0097656
0.019531
0.025391
0.019531
0.03125
0.019531
0.015625
0.0058594
-0.013672
-0.0097656
0.0058594
0.015625
0.019531
0.041016
0.070313
0.085938
0.089844
0.11523
0.10547
0.089844
0.11523
0.044922
0
-0.025391
-0.035156
-0.048828
-0.048828
-0.039063
-0.0097656
0.064453
0.125
0.14453
-0.11914
-0.38477
-0.49805
-0.49805
-0.49414
-0.37891
-0.22461
-0.11914
-0.089844
-0.058594
-0.048828
-0.039063
-0.019531
-0.013672
-0.0097656
0
0
-0.0039063
-0.0039063
0
0.019531
-0.0039063
-0.0097656
0
0.015625
0.025391
0.015625
0.015625
0.03125
0.019531
0.03125
0.019531
0
-0.0097656
0.0058594
-0.0097656
-0.0097656
-0.029297
-0.025391
-0.025391
-0.019531
-0.013672
-0.025391
0
-0.0039063
0
0
0.0058594
0.025391
0.0097656
0.025391
0.025391
0.03125
0.035156
0.044922
0.041016
0.035156
0.03125
0.044922
0.044922
0.060547
0.041016
0.019531
0.041016
0.019531
0.019531
0.019531
0.025391
0.0058594
0.0097656
0.019531
0.019531
0.03125
0.076172
0.070313
0.099609
0.085938
0.095703
0.12109
0.125
0.060547
0.025391
0.0058594
-0.0039063
-0.039063
-0.064453
-0.044922
-0.048828
0.025391
0.070313
0.13086
-0.029297
-0.31836
-0.49805
-0.49805
-0.49805
-0.42383
-0.26367
-0.10938
-0.074219
-0.058594
-0.044922
-0.029297
-0.029297
-0.013672
0
0.0097656
0.025391
0.019531
0.025391
0.019531
0.041016
0.035156
0.044922
0.019531
0.019531
0.019531
0.035156
0.019531
0.035156
0.015625
0.03125
0.015625
0.015625
0.0097656
0.019531
-0.0039063
-0.0097656
-0.025391
-0.0097656
-0.0039063
-0.013672
-0.019531
0
-0.0039063
-0.019531
0.025391
0.019531
0.0097656
0.015625
0.044922
0.044922
0.050781
0.060547
0.070313
0.050781
0.044922
0.060547
0.054688
0.070313
0.054688
0.054688
0.070313
0.050781
0.054688
0.050781
0.041016
0.025391
0.019531
0.03125
0.041016
0.044922
0.044922
0.064453
0.085938
0.11523
0.13086
0.13477
0.14453
0.15625
0.12109
0.064453
0.015625
-0.013672
-0.029297
-0.025391
-0.035156
-0.039063
-0.0039063
0.060547
0.099609
0.025391
-0.25
-0.47461
-0.49805
-0.49805
-0.42383
-0.29883
-0.12891
-0.064453
-0.025391
-0.0097656
0.0058594
-0.0097656
0
-0.0039063
0.015625
-0.0039063
-0.0039063
0
0.0097656
0.0058594
0.0097656
0
0.025391
0.0097656
0.0058594
0.015625
0.03125
0.041016
0.03125
0.03125
0.035156
0.03125
0.025391
0.0097656
-0.0039063
-0.019531
0
-0.025391
-0.025391
-0.019531
-0.029297
-0.0097656
-0.013672
-0.0039063
-0.0039063
0
-0.0097656
0.0058594
0.03125
0.041016
0.025391
0.03125
0.041016
0.035156
0.044922
0.060547
0.050781
0.080078
0.060547
0.060547
0.070313
0.060547
0.064453
0.035156
0.035156
0.015625
0.015625
0.019531
0.015625
0.0097656
0.03125
0.044922
0.064453
0.070313
0.070313
0.080078
0.089844
0.089844
0.050781
-0.0097656
-0.035156
-0.058594
-0.074219
-0.080078
-0.074219
-0.048828
-0.025391
0.054688
0.11133
0.13477
-0.17383
-0.38477
-0.47852
-0.49414
-0.42383
-0.28906
-0.12891
-0.044922
0
0.025391
0.019531
0.019531
0.025391
0.03125
0.025391
0.041016
0.050781
0.060547
0.064453
0.054688
0.070313
0.054688
0.060547
0.076172
0.085938
0.070313
0.089844
0.095703
0.099609
0.089844
0.10547
0.11133
0.12109
0.089844
0.099609
0.099609
0.095703
0.10547
0.10547
0.11133
0.11523
0.10547
0.095703
0.089844
0.076172
0.095703
0.099609
0.060547
0.054688
0.076172
0.085938
0.089844
0.095703
0.11133
0.11523
0.125
0.095703
0.089844
0.070313
0.070313
0.076172
0.080078
0.064453
0.060547
0.050781
0.044922
0.03125
0.019531
0.015625
0.03125
0.044922
0.041016
0.054688
0.076172
0.10547
0.125
0.14453
0.16602
0.13086
0.076172
0.041016
0.015625
0.019531
-0.029297
-0.025391
-0.029297
0.025391
0.095703
0.13086
0.03125
-0.24414
-0.45898
-0.49414
-0.49805
-0.4082
-0.25977
-0.11914
-0.048828
0
0.019531
0.015625
0.041016
0.050781
0.070313
0.076172
0.080078
0.085938
0.080078
0.089844
0.10547
0.089844
0.089844
0.064453
0.060547
0.044922
0.060547
0.044922
0.041016
0.03125
0.025391
0.03125
0.025391
0.035156
0
0.0097656
-0.0039063
0
-0.013672
-0.0039063
-0.013672
-0.019531
-0.0097656
-0.0097656
-0.0039063
0.0097656
0.015625
-0.019531
-0.0097656
-0.0039063
0
-0.025391
-0.035156
-0.019531
-0.029297
-0.035156
-0.039063
-0.054688
-0.070313
-0.074219
-0.070313
-0.058594
-0.048828
-0.058594
-0.048828
-0.044922
-0.025391
-0.019531
0
0.0058594
-0.013672
0.025391
0.044922
0.064453
0.089844
0.095703
0.11523
0.11133
0.13477
0.15039
0.14453
0.089844
0.064453
0.025391
0
0
-0.013672
-0.025391
-0.013672
0.080078
0.099609
0.11523
-0.14453
-0.39844
-0.49805
-0.49805
-0.49805
-0.37891
-0.19336
-0.09375
-0.048828
-0.013672
0.0058594
-0.0039063
0.015625
0.025391
0.03125
0.044922
0.050781
0.03125
0.035156
0.019531
0.025391
-0.019531
-0.035156
-0.048828
-0.054688
-0.048828
-0.029297
-0.044922
-0.025391
-0.039063
-0.048828
-0.064453
-0.044922
-0.070313
-0.058594
-0.048828
-0.058594
-0.044922
-0.048828
-0.058594
-0.044922
-0.039063
-0.048828
-0.039063
-0.048828
-0.025391
-0.013672
0
0.019531
0.044922
0.070313
0.070313
0.070313
0.095703
0.10547
0.12109
0.080078
0.076172
0.070313
0.070313
0.076172
0.044922
0.041016
0.050781
0.035156
0.050781
0.054688
0.041016
0.044922
0.035156
0.025391
0.050781
0.076172
0.099609
0.12109
0.13086
0.16992
0.18555
0.16602
0.18555
0.14453
0.099609
0.064453
0.054688
0.0058594
-0.013672
0
0.0058594
0.085938
0.125
0.15625
-0.064453
-0.33398
-0.48828
-0.49805
-0.45313
-0.33398
-0.18359
-0.064453
-0.0097656
0.0058594
0.044922
0.050781
0.076172
0.085938
0.070313
0.076172
0.085938
0.076172
0.089844
0.076172
0.10547
0.11523
0.089844
0.11523
0.095703
0.11133
0.13086
0.13477
0.14063
0.12109
0.14063
0.125
0.11523
0.10547
0.080078
0.085938
0.044922
0.050781
0.044922
0.041016
0.03125
0.041016
0.060547
0.070313
0.076172
0.089844
0.064453
0.085938
0.089844
0.080078
0.099609
0.076172
0.11523
0.12109
0.10547
0.12109
0.13086
0.14063
0.14063
0.13477
0.14453
0.13477
0.12109
0.099609
0.10547
0.095703
0.089844
0.095703
0.089844
0.064453
0.089844
0.099609
0.13086
0.17578
0.15625
0.16016
0.17969
0.19531
0.17578
0.14453
0.085938
0.050781
0.019531
0.0058594
-0.013672
-0.019531
-0.025391
0.054688
0.099609
0.16602
0.044922
-0.25977
-0.48438
-0.49805
-0.49805
-0.41406
-0.2793
-0.11914
-0.048828
-0.0097656
0.0058594
0.019531
0.0058594
0
0.019531
0.0058594
0
0.0097656
0.019531
0.015625
0.0058594
0
0.015625
0.019531
-0.0039063
0
0.019531
0.0058594
0.015625
0.025391
0.019531
0
-0.013672
-0.019531
-0.013672
-0.019531
-0.039063
-0.058594
-0.074219
-0.064453
-0.070313
-0.070313
-0.080078
-0.074219
-0.064453
-0.048828
-0.054688
-0.054688
-0.048828
-0.048828
-0.039063
-0.025391
-0.019531
-0.0039063
-0.0097656
0.0058594
0
0.035156
0.044922
0.015625
0.03125
0
-0.0039063
0
-0.013672
-0.0097656
-0.013672
-0.019531
-0.029297
-0.019531
0.0058594
0.025391
0.044922
0.041016
0.080078
0.089844
0.076172
0.085938
0.095703
0.041016
-0.0039063
-0.044922
-0.070313
-0.064453
-0.070313
-0.089844
-0.09375
-0.013672
0.041016
0.095703
-0.074219
-0.35352
-0.49805
-0.49805
-0.49805
-0.44922
-0.31445
-0.20508
-0.14844
-0.10352
-0.080078
-0.054688
-0.074219
-0.074219
-0.058594
-0.064453
-0.054688
-0.064453
-0.054688
-0.074219
-0.064453
-0.058594
-0.064453
-0.054688
-0.058594
-0.044922
-0.025391
-0.025391
0
-0.0097656
-0.0039063
-0.013672
-0.019531
-0.039063
-0.054688
-0.070313
-0.074219
-0.080078
-0.080078
-0.083984
-0.070313
-0.074219
-0.048828
-0.074219
-0.058594
-0.070313
-0.054688
-0.048828
-0.048828
-0.035156
-0.025391
-0.013672
0
-0.0097656
-0.0039063
-0.0097656
0
0.0097656
-0.0097656
0.015625
-0.0097656
0
0.015625
0.0097656
0.0058594
0
0.0058594
-0.0097656
0
0.0097656
-0.0097656
0
0.015625
0.025391
0.03125
0.041016
0.054688
0.050781
0.085938
0.095703
0.080078
0.015625
-0.0097656
-0.035156
-0.058594
-0.070313
-0.044922
-0.029297
-0.058594
0.044922
0.080078
0.10547
-0.19922
-0.45898
-0.49805
-0.49805
-0.49805
-0.37891
-0.20508
-0.11523
-0.064453
-0.058594
-0.048828
-0.039063
-0.048828
-0.044922
-0.048828
-0.054688
-0.048828
-0.039063
-0.029297
-0.025391
-0.058594
-0.025391
-0.025391
-0.029297
-0.013672
-0.0039063
0
0
-0.0097656
0.0058594
-0.0039063
-0.0097656
0.0097656
-0.029297
-0.039063
-0.048828
-0.025391
-0.044922
-0.044922
-0.070313
-0.048828
-0.058594
-0.044922
-0.039063
-0.039063
-0.048828
-0.048828
-0.035156
0
-0.013672
-0.0097656
-0.0039063
0.019531
0.03125
0.035156
0.044922
0.019531
0.025391
0.019531
0.03125
0.015625
0.041016
0.019531
0.03125
0.035156
0.041016
0.0097656
0.025391
0.025391
0.03125
0.015625
0.025391
0.044922
0.089844
0.095703
0.12109
0.13477
0.14063
0.16016
0.16602
0.099609
0.050781
0.03125
0
0
0.015625
0.025391
-0.019531
0.064453
0.11523
0.15625
-0.089844
-0.33398
-0.49414
-0.49805
-0.44336
-0.32422
-0.1543
-0.039063
0.0058594
0.025391
0.044922
0.041016
0.035156
0.044922
0.050781
0.035156
0.050781
0.044922
0.064453
0.064453
0.070313
0.064453
0.044922
0.041016
0.060547
0.070313
0.064453
0.054688
0.076172
0.11133
0.099609
0.085938
0.085938
0.070313
0.050781
0.019531
0.025391
0.035156
0
0
-0.0097656
0.019531
0.025391
0.019531
0.041016
0.060547
0.041016
0.019531
0.041016
0.054688
0.064453
0.076172
0.085938
0.089844
0.085938
0.070313
0.076172
0.070313
0.076172
0.070313
0.089844
0.076172
0.085938
0.070313
0.099609
0.076172
0.076172
0.064453
0.054688
0.044922
0.070313
0.076172
0.099609
0.11523
0.12109
0.14453
0.16016
0.14453
0.16016
0.13477
0.070313
0.0097656
-0.025391
-0.044922
-0.035156
-0.044922
-0.035156
0
0.076172
0.12109
0.0097656
-0.22852
-0.46484
-0.49805
-0.49805
-0.43945
-0.28906
-0.13477
-0.058594
-0.019531
-0.0039063
-0.0097656
0.0097656
0.019531
-0.0039063
-0.0097656
0
0.019531
-0.0039063
0.0097656
0.019531
0.03125
0.019531
0.025391
0.0097656
0
0.019531
0.0097656
0
0
0.0097656
0
-0.013672
-0.035156
-0.029297
-0.044922
-0.048828
-0.083984
-0.074219
-0.074219
-0.080078
-0.054688
-0.080078
-0.058594
-0.064453
-0.048828
-0.064453
-0.039063
-0.013672
-0.0039063
0.0097656
0.03125
0.019531
-0.0039063
-0.019531
-0.0097656
-0.025391
-0.0097656
-0.019531
-0.013672
-0.025391
-0.029297
-0.019531
-0.0097656
-0.035156
-0.025391
-0.044922
-0.054688
-0.080078
-0.083984
-0.054688
-0.013672
0.015625
0.019531
0.060547
0.070313
0.089844
0.099609
0.11523
0.064453
0.025391
0
-0.013672
-0.019531
-0.025391
-0.025391
-0.0039063
0.041016
0.12109
0.18555
0.054688
-0.19922
-0.44922
-0.49805
-0.49805
-0.49805
-0.35938
-0.22461
-0.16016
-0.12891
-0.09375
-0.080078
-0.083984
-0.074219
-0.058594
-0.054688
-0.029297
0
-0.013672
0.015625
0.019531
0.019531
0.025391
0.035156
0.019531
0.0058594
0.019531
0
0
0
-0.019531
-0.035156
-0.070313
-0.080078
-0.10352
-0.14453
-0.1543
-0.16406
-0.18945
-0.18359
-0.16992
-0.17383
-0.16016
-0.16406
-0.14844
-0.14453
-0.11914
-0.10938
-0.083984
-0.089844
-0.064453
-0.070313
-0.048828
-0.048828
-0.0097656
-0.019531
-0.025391
-0.0097656
0.0097656
0
0.0097656
0.019531
0.035156
0.060547
0.044922
0.060547
0.070313
0.10547
0.080078
0.070313
0.064453
0.089844
0.085938
0.070313
0.085938
0.064453
0.050781
0.044922
0.035156
0.064453
0.03125
0
-0.044922
-0.080078
-0.099609
-0.11523
-0.11914
-0.09375
-0.089844
-0.044922
0.03125
0.080078
-0.044922
-0.29492
-0.49805
-0.49805
-0.49805
-0.39453
-0.21875
-0.070313
-0.0039063
0.076172
0.12109
0.125
0.064453
0.044922
0.025391
0.0058594
-0.013672
-0.035156
-0.044922
-0.048828
-0.035156
-0.083984
-0.089844
-0.083984
-0.10352
-0.10352
-0.10938
-0.089844
-0.09375
-0.099609
-0.11914
-0.11523
-0.10352
-0.13867
-0.14453
-0.16992
-0.18945
-0.18359
-0.20898
-0.21875
-0.23438
-0.23438
-0.23438
-0.23438
-0.21484
-0.20898
-0.19336
-0.17383
-0.1543
-0.13867
-0.099609
-0.058594
-0.035156
-0.019531
0.0097656
0.041016
0.054688
0.080078
0.10547
0.125
0.12109
0.16016
0.15625
0.17578
0.18555
0.16992
0.15625
0.14063
0.13086
0.13477
0.13477
0.12109
0.085938
0.089844
0.11523
0.13086
0.095703
0.11133
0.13086
0.11523
0.125
0.15039
0.089844
0.035156
0.015625
-0.0097656
-0.035156
-0.025391
-0.019531
-0.025391
0.03125
0.089844
0.13086
-0.064453
-0.32422
-0.49805
-0.49805
-0.49805
-0.38867
-0.22852
-0.083984
-0.039063
-0.013672
0
-0.0039063
-0.0097656
0.019531
0.025391
0
-0.0097656
0
0
0
0.019531
0.0058594
-0.0039063
0.0058594
0.025391
0.019531
0.019531
0.035156
0.041016
0.044922
0.035156
0.044922
0.041016
0
0.019531
0.0058594
0
-0.013672
-0.019531
-0.0097656
-0.025391
-0.019531
-0.013672
-0.0039063
0
-0.013672
0
0.0058594
0
0.015625
0.019531
0.019531
0.025391
0.025391
0.041016
0.0058594
0.015625
0.03125
0.0097656
0.03125
0.025391
0.044922
0.019531
0.0097656
0.019531
0.0097656
0
0.015625
0.03125
-0.0097656
-0.013672
0.025391
0.041016
0.054688
0.070313
0.080078
0.089844
0.099609
0.12109
0.10547
0.085938
0.0058594
-0.029297
-0.044922
-0.048828
-0.058594
-0.074219
-0.080078
-0.0097656
0.054688
0.10547
-0.013672
-0.2793
-0.48828
-0.49805
-0.49805
-0.46484
-0.32422
-0.14844
-0.11523
-0.080078
-0.048828
-0.054688
-0.025391
-0.044922
-0.048828
-0.044922
-0.035156
-0.029297
-0.039063
-0.013672
-0.0039063
-0.044922
-0.048828
-0.013672
-0.025391
-0.035156
-0.029297
-0.0039063
-0.019531
-0.025391
-0.0097656
-0.019531
-0.013672
-0.054688
-0.048828
-0.074219
-0.074219
-0.09375
-0.10352
-0.099609
-0.11914
-0.125
-0.12891
-0.10938
-0.12891
-0.099609
-0.13477
-0.12891
-0.11523
-0.099609
-0.074219
-0.074219
-0.064453
-0.054688
-0.048828
-0.025391
-0.044922
-0.044922
-0.025391
-0.019531
-0.044922
-0.029297
-0.039063
-0.044922
-0.029297
-0.039063
-0.058594
-0.064453
-0.044922
-0.048828
-0.044922
-0.019531
0
0.015625
0.025391
0.064453
0.054688
0.050781
0.070313
0.076172
0.035156
-0.0097656
-0.035156
-0.058594
-0.074219
-0.083984
-0.080078
-0.09375
-0.039063
0.025391
0.085938
-0.019531
-0.28516
-0.49805
-0.49805
-0.49805
-0.49805
-0.4043
-0.23438
-0.16992
-0.13867
-0.10352
-0.083984
-0.080078
-0.09375
-0.099609
-0.083984
-0.080078
-0.089844
-0.099609
-0.089844
-0.11523
-0.11914
-0.11523
-0.11914
-0.11523
-0.11523
-0.074219
-0.083984
-0.09375
-0.083984
-0.083984
-0.070313
-0.09375
-0.099609
-0.09375
-0.125
-0.14844
-0.14453
-0.13477
-0.14453
-0.16406
-0.16016
-0.16406
-0.1543
-0.13867
-0.125
-0.10938
-0.10352
-0.10938
-0.11914
-0.11523
-0.083984
-0.070313
-0.083984
-0.058594
-0.054688
-0.064453
-0.054688
-0.048828
-0.048828
-0.044922
-0.039063
-0.048828
-0.019531
-0.035156
-0.054688
-0.048828
-0.054688
-0.044922
-0.048828
-0.064453
-0.074219
-0.054688
-0.048828
-0.0097656
0
0.015625
0.019531
0.0058594
0.03125
0.041016
0.095703
0.050781
0
-0.039063
-0.064453
-0.083984
-0.089844
-0.083984
-0.064453
-0.035156
0.050781
0.089844
0.050781
-0.22461
-0.47852
-0.49805
-0.49805
-0.49805
-0.4043
-0.24023
-0.16406
-0.11914
-0.080078
-0.054688
-0.029297
-0.048828
-0.039063
-0.025391
-0.048828
-0.025391
-0.044922
-0.048828
-0.029297
-0.035156
-0.044922
-0.048828
-0.035156
-0.048828
-0.044922
-0.039063
-0.035156
-0.039063
-0.025391
-0.044922
-0.058594
-0.070313
-0.064453
-0.09375
-0.080078
-0.099609
-0.10938
-0.089844
-0.11914
-0.11523
-0.09375
-0.10352
-0.10938
-0.083984
-0.070313
-0.058594
-0.048828
-0.070313
-0.054688
-0.058594
-0.029297
-0.035156
-0.0039063
0.0097656
0
-0.013672
-0.019531
0
0.0058594
-0.0039063
-0.013672
0
-0.0039063
0.0058594
0.015625
0
0.0097656
0.015625
0
0.0058594
0
0.015625
0.041016
0.060547
0.070313
0.085938
0.11133
0.12109
0.15039
0.15625
0.16602
0.076172
0.050781
0.035156
0.019531
0.0058594
0.0097656
-0.0039063
0.076172
0.14453
0.17969
0.050781
-0.21484
-0.44336
-0.48828
-0.46484
-0.36328
-0.22852
-0.064453
0.015625
0.041016
0.060547
0.070313
0.089844
0.10547
0.080078
0.070313
0.070313
0.085938
0.089844
0.080078
0.11133
0.076172
0.089844
0.080078
0.095703
0.089844
0.099609
0.13086
0.12109
0.125
0.13477
0.13086
0.125
0.099609
0.089844
0.070313
0.050781
0.044922
0.044922
0.044922
0.041016
0.019531
0.050781
0.054688
0.025391
0.041016
0.035156
0.050781
0.064453
0.076172
0.060547
0.070313
0.085938
0.12109
0.125
0.095703
0.11133
0.10547
0.11523
0.089844
0.089844
0.085938
0.095703
0.089844
0.095703
0.080078
0.089844
0.064453
0.050781
0.044922
0.054688
0.044922
0.070313
0.089844
0.13086
0.14453
0.15625
0.16602
0.17969
0.18555
0.16602
0.089844
0.064453
0.019531
0
-0.013672
-0.025391
-0.013672
-0.019531
0.095703
0.16602
0.16992
-0.1543
-0.37891
-0.49414
-0.49805
-0.41992
-0.29883
-0.14453
-0.058594
-0.029297
-0.0039063
0.025391
0.035156
0.035156
0.044922
0.050781
0.041016
0.03125
0.054688
0.064453
0.044922
0.054688
0.064453
0.085938
0.050781
0.060547
0.050781
0.060547
0.050781
0.064453
0.076172
0.060547
0.054688
0.054688
0.025391
0.019531
0
0.019531
-0.029297
-0.039063
-0.029297
-0.025391
-0.044922
-0.035156
-0.029297
-0.0097656
0
-0.019531
0
0.025391
0.019531
0.041016
0.044922
0.025391
0.050781
0.060547
0.076172
0.070313
0.095703
0.089844
0.085938
0.076172
0.095703
0.13086
0.14453
0.16016
0.18945
0.19531
0.17969
0.16016
0.14453
0.10547
0.070313
0.041016
0.0097656
0
0.019531
0.035156
0.11133
0.16992
0.18555
-0.083984
-0.33398
-0.4082
-0.44922
-0.43359
-0.31836
-0.14844
-0.070313
0
0.019531
0.035156
0.044922
0.041016
0.050781
0.054688
0.035156
0.041016
0.03125
0.044922
0.019531
0.019531
0.0097656
0
0
0.025391
0.03125
0.044922
0.041016
0.044922
0.060547
0.054688
0.060547
0.035156
0.025391
0.019531
0.015625
0.019531
0.0097656
0.015625
-0.019531
-0.013672
-0.0039063
0
0.0097656
0.015625
0.035156
0.041016
0.019531
0.03125
0.019531
0.041016
0.041016
0.050781
0.035156
0.035156
0.019531
0.025391
0.03125
0.035156
0.0097656
0.0097656
0.015625
0.019531
0
0
0.0058594
-0.0039063
-0.0097656
-0.0039063
0
0.0097656
-0.013672
-0.044922
-0.025391
-0.019531
-0.0039063
0.0097656
-0.025391
-0.029297
-0.0097656
-0.013672
-0.0039063
0.025391
0.041016
0.054688
0.089844
0.099609
0.089844
0.099609
0.14063
0.12109
0.099609
0.035156
0.0058594
-0.019531
-0.048828
-0.054688
-0.048828
-0.080078
-0.048828
0.035156
0.095703
0.099609
-0.25391
-0.49414
-0.49805
-0.49805
-0.48438
-0.35352
-0.17383
-0.09375
-0.080078
-0.035156
-0.019531
0.0097656
0
0.015625
0.0097656
0.025391
0.019531
0.0097656
0.03125
0.041016
0.0097656
0.0097656
0.019531
0
0
0.0058594
0.019531
0.015625
0.025391
0.015625
0.019531
0.0097656
-0.013672
-0.025391
-0.044922
-0.054688
-0.070313
-0.089844
-0.09375
-0.074219
-0.089844
-0.083984
-0.070313
-0.074219
-0.080078
-0.054688
-0.013672
-0.035156
-0.025391
-0.013672
0.0097656
0.041016
0.025391
0.019531
0.015625
0.041016
0.041016
0.044922
0.041016
0.03125
0.041016
0.054688
0.050781
0.03125
0.019531
0.041016
0.050781
0.019531
0.03125
0.019531
0.0058594
0.019531
0
-0.0039063
-0.013672
0.041016
0.064453
0.085938
0.12109
0.16016
0.16602
0.099609
0.070313
0.044922
0.0058594
-0.019531
-0.025391
-0.013672
-0.025391
0.0058594
0.089844
0.12109
0.070313
-0.19922
-0.43359
-0.49805
-0.48828
-0.41406
-0.26953
-0.10938
-0.044922
-0.013672
0.019531
0.041016
0.035156
0.064453
0.064453
0.060547
0.080078
0.089844
0.080078
0.076172
0.099609
0.070313
0.080078
0.070313
0.064453
0.080078
0.080078
0.080078
0.085938
0.089844
0.080078
0.076172
0.085938
0.095703
0.044922
0.03125
0.025391
0.03125
0.0097656
0
0.019531
0
0
0.019531
0.041016
0.044922
0.025391
0.035156
0.054688
0.060547
0.050781
0.054688
0.085938
0.095703
0.099609
0.085938
0.089844
0.085938
0.060547
0.064453
0.089844
0.080078
0.060547
0.054688
0.044922
0.03125
0.019531
0.044922
0.054688
0.041016
0.025391
0.015625
0.03125
0.0097656
0.03125
0.044922
0.054688
0.064453
0.095703
0.12109
0.13477
0.15039
0.17969
0.18945
0.15039
0.095703
0.050781
-0.0097656
-0.019531
-0.013672
-0.019531
-0.019531
0.0097656
0.085938
0.15625
0.16602
-0.14453
-0.38477
-0.49414
-0.49805
-0.43359
-0.31445
-0.13867
-0.054688
-0.029297
-0.0039063
0.019531
0.035156
0.025391
0.015625
0.0097656
0.019531
0.03125
0.019531
0.025391
0.015625
0.015625
0.0097656
0.019531
0.019531
0.019531
0.044922
0.019531
0.019531
0.019531
0.044922
0.054688
0.064453
0.03125
0.025391
0.035156
-0.0039063
-0.025391
-0.029297
0
-0.058594
-0.054688
-0.064453
-0.029297
-0.035156
-0.029297
-0.013672
-0.039063
-0.029297
-0.0039063
0.0097656
0
0
0.015625
0.025391
0.03125
0.035156
0.019531
0.044922
0.041016
0.060547
0.041016
0.044922
0.041016
0.041016
0.044922
0.035156
0.019531
0.03125
0.019531
0.0097656
0.025391
0.0058594
0.019531
0.0058594
0.064453
0.085938
0.089844
0.11133
0.125
0.13477
0.125
0.085938
0.044922
0.019531
-0.013672
-0.044922
-0.048828
-0.070313
-0.064453
-0.070313
0.064453
0.10547
0.11133
-0.22852
-0.45313
-0.49805
-0.49805
-0.47461
-0.31836
-0.16406
-0.089844
-0.044922
-0.0097656
-0.0039063
0.0058594
0
0.019531
0
0
0.0058594
0.019531
0.035156
0.015625
0.019531
0.025391
0.015625
0.0097656
0.015625
0.019531
0.03125
0.035156
0.025391
0.035156
0.060547
0.03125
0.035156
0.019531
0.0058594
0
0.0097656
-0.019531
-0.025391
-0.054688
-0.058594
-0.044922
-0.039063
-0.054688
-0.029297
-0.019531
-0.025391
-0.025391
-0.019531
-0.0039063
0.0058594
0.041016
0.041016
0.064453
0.019531
0.035156
0.044922
0.041016
0.044922
0.050781
0.041016
0.044922
0.044922
0.054688
0.035156
0.03125
0.019531
0.015625
0.019531
-0.0097656
0
0.015625
0.03125
0.019531
0.050781
0.089844
0.085938
0.089844
0.11523
0.125
0.10547
0.044922
0.019531
-0.019531
-0.039063
-0.029297
-0.048828
-0.048828
-0.013672
0.050781
0.11523
0.14063
-0.14844
-0.41406
-0.49805
-0.49805
-0.49805
-0.4043
-0.24023
-0.16016
-0.10938
-0.080078
-0.064453
-0.048828
-0.029297
-0.054688
-0.048828
-0.035156
-0.025391
-0.019531
-0.039063
-0.013672
-0.025391
-0.029297
-0.025391
-0.0097656
-0.025391
-0.025391
-0.025391
-0.013672
0
-0.013672
-0.025391
-0.029297
-0.019531
-0.029297
-0.054688
-0.070313
-0.044922
-0.09375
-0.099609
-0.09375
-0.09375
-0.11523
-0.10352
-0.09375
-0.09375
-0.099609
-0.064453
-0.074219
-0.058594
-0.074219
-0.054688
-0.029297
-0.019531
-0.039063
-0.048828
-0.029297
-0.044922
-0.025391
-0.039063
-0.019531
-0.039063
-0.044922
-0.044922
-0.025391
-0.048828
-0.054688
-0.064453
-0.048828
-0.074219
-0.064453
-0.074219
-0.070313
-0.074219
-0.074219
-0.064453
-0.080078
-0.039063
-0.029297
0
0.019531
0.035156
0.050781
0.064453
0.085938
0.10547
0.044922
0.03125
-0.013672
-0.048828
-0.074219
-0.089844
-0.089844
-0.080078
-0.029297
0.025391
0.089844
-0.029297
-0.31836
-0.49805
-0.49805
-0.49805
-0.49414
-0.33008
-0.18359
-0.12891
-0.083984
-0.058594
-0.035156
-0.035156
-0.0097656
-0.025391
0
-0.0039063
0.015625
0.019531
0.025391
0
-0.0039063
0
0.0097656
0.0058594
0.015625
0.019531
0.035156
0.03125
0.044922
0.041016
0.044922
0.025391
0.025391
0.0058594
-0.025391
-0.019531
-0.035156
-0.044922
-0.048828
-0.070313
-0.074219
-0.048828
-0.080078
-0.074219
-0.09375
-0.074219
-0.064453
-0.044922
-0.044922
-0.048828
-0.044922
-0.048828
-0.013672
-0.019531
0.015625
-0.025391
-0.0097656
-0.013672
0
-0.0097656
-0.013672
-0.019531
-0.013672
-0.029297
-0.048828
-0.054688
-0.064453
-0.058594
-0.058594
-0.044922
-0.039063
-0.044922
-0.035156
-0.039063
0
0.019531
0.076172
0.080078
0.125
0.15625
0.15039
0.17578
0.17969
0.13477
0.099609
0.064453
0.044922
0.035156
0.044922
0.044922
0.050781
0.11523
0.16016
0.18945
-0.064453
-0.30859
-0.43945
-0.45898
-0.41992
-0.31836
-0.1543
-0.029297
0.015625
0.050781
0.03125
0.041016
0.044922
0.044922
0.060547
0.064453
0.044922
0.044922
0.070313
0.080078
0.070313
0.044922
0.035156
0.025391
0.044922
0.050781
0.044922
0.070313
0.089844
0.10547
0.16016
0.16016
0.17969
0.18555
0.14063
0.10547
0.044922
0.03125
-0.0039063
-0.035156
-0.048828
-0.054688
-0.058594
-0.064453
-0.054688
-0.054688
-0.029297
0.019531
-0.013672
-0.22461
-0.47461
-0.49805
-0.49805
-0.49805
-0.48438
-0.35938
-0.14453
0.095703
0.2207
0.26563
0.21094
0.13477
0.125
0.13477
0.11133
0.10547
0.11133
0.099609
0.11523
0.11523
0.12109
0.11523
0.14453
0.15625
0.16602
0.16016
0.16992
0.16016
0.18555
0.18945
0.21484
0.18555
0.17578
0.18555
0.18945
0.17578
0.16602
0.15625
0.13086
0.11523
0.085938
0.070313
0.085938
0.060547
0.025391
0.019531
0.015625
0.035156
0.0097656
0.015625
0.0097656
0
0.0097656
0.035156
0.015625
0.0058594
0.03125
0
0.0058594
0.015625
0.019531
0.015625
0.019531
0.015625
0.025391
0.03125
0.019531
0.025391
0.044922
0.015625
0.0097656
0.0097656
0.0097656
0.015625
0.019531
0.019531
0.015625
0.0058594
0.044922
0.025391
0.019531
0.025391
0.041016
0.044922
0.025391
0.025391
0.041016
0.044922
0.025391
0.041016
0.035156
0.044922
0.070313
0.050781
0.064453
0.085938
0.095703
0.11523
0.13086
0.15039
0.14453
0.12109
0.080078
0.064453
0.025391
-0.0039063
-0.013672
-0.019531
-0.0097656
0.025391
0.13086
0.16602
0.18555
-0.083984
-0.34375
-0.46875
-0.49805
-0.46484
-0.33984
-0.16992
-0.058594
-0.029297
0.0058594
0.0097656
0.03125
0.025391
0.025391
0.015625
0
0.0058594
-0.0039063
-0.0097656
0
-0.0097656
0.019531
0.019531
0.025391
0.03125
0.050781
0.060547
0.054688
0.050781
0.060547
0.044922
0.03125
0.044922
0.015625
-0.0039063
-0.0097656
0
0.019531
0.019531
0.019531
0.041016
0.041016
0.019531
-0.0039063
-0.029297
-0.039063
-0.048828
-0.048828
-0.039063
-0.019531
0.015625
0.041016
0.015625
-0.044922
-0.25391
-0.375
-0.44336
-0.47461
-0.31445
-0.17969
-0.074219
0.060547
0.14063
0.16016
0.099609
0.070313
0.041016
0.03125
0.041016
0.050781
0.044922
0.060547
0.050781
0.054688
0.060547
0.080078
0.085938
0.080078
0.095703
0.11523
0.080078
0.085938
0.060547
0.044922
0.025391
-0.0097656
-0.039063
-0.064453
-0.064453
-0.048828
-0.035156
-0.029297
-0.048828
-0.058594
-0.048828
-0.048828
-0.044922
-0.054688
-0.054688
-0.044922
-0.035156
-0.044922
-0.048828
-0.029297
-0.025391
0
0.019531
0.019531
0.041016
0.044922
0.015625
0.03125
0.019531
0.03125
0.025391
0.044922
0.050781
0.064453
0.050781
0.060547
0.044922
0.060547
0.070313
0.054688
0.060547
0.041016
0.060547
0.035156
0.035156
0.044922
0.019531
0.041016
0.044922
0.035156
0.03125
0.044922
0.054688
0.025391
0.044922
0.025391
0.025391
0.03125
0.03125
0.019531
0.041016
0.019531
0.060547
0.044922
0.070313
0.080078
0.099609
0.12109
0.16016
0.15039
0.14063
0.15625
0.11523
0.054688
0.041016
-0.0039063
0
-0.013672
-0.025391
-0.0039063
0.076172
0.15039
0.18555
-0.039063
-0.30859
-0.45313
-0.49805
-0.45898
-0.34961
-0.17969
-0.058594
-0.039063
-0.0097656
-0.0039063
0.015625
0.019531
0.041016
0.019531
0.041016
0
0
0.0097656
0.015625
0.025391
0.015625
0.0058594
0.025391
0.019531
0.035156
0.03125
0.060547
0.03125
0.019531
0.025391
0.041016
0.0097656
0.015625
-0.0097656
-0.013672
-0.025391
-0.064453
-0.089844
-0.058594
-0.029297
-0.099609
-0.09375
-0.080078
-0.064453
-0.070313
-0.039063
-0.025391
-0.019531
0.0058594
0.0097656
0.019531
0.060547
0.050781
0.041016
0.041016
0.064453
0.060547
0.054688
0.064453
0.070313
0.064453
0.070313
0.054688
0.064453
0.044922
0.035156
0.060547
0.0058594
0
-0.0097656
0
-0.013672
0
0.015625
0.025391
0.050781
0.080078
0.070313
0.089844
0.11523
0.125
0.13086
0.095703
0.035156
-0.0039063
-0.029297
-0.054688
-0.064453
-0.048828
-0.039063
0.019531
0.085938
0.15625
-0.0097656
-0.2793
-0.49805
-0.49805
-0.49805
-0.45898
-0.29492
-0.13867
-0.044922
0.0058594
-0.025391
-0.029297
0
0.0058594
0
0
0.0097656
0.015625
0
0.0058594
0.015625
0.015625
0.019531
0.035156
0.035156
0.019531
0.054688
0.019531
0.025391
0.035156
0.019531
0.044922
0.03125
0.019531
0
0.0097656
0
-0.013672
-0.039063
-0.044922
-0.039063
-0.054688
-0.064453
-0.029297
-0.054688
-0.054688
-0.054688
-0.048828
-0.039063
-0.025391
-0.0039063
0.0058594
0.0097656
-0.0039063
0.019531
0.019531
0.035156
0.03125
0.085938
0.019531
0.03125
0.035156
0.019531
0.019531
0.044922
0.035156
0.041016
0.019531
0.019531
0.025391
0
0.025391
0.03125
0.060547
0.054688
0.089844
0.080078
0.099609
0.11133
0.16992
0.085938
0.015625
-0.025391
-0.054688
-0.083984
-0.074219
-0.074219
-0.070313
-0.048828
0.03125
0.085938
0.11133
-0.16992
-0.41406
-0.49805
-0.49805
-0.49805
-0.45313
-0.26367
-0.11523
-0.10352
-0.074219
-0.035156
-0.058594
-0.054688
-0.044922
-0.044922
-0.054688
-0.035156
-0.029297
-0.039063
-0.044922
-0.025391
-0.039063
-0.048828
-0.029297
-0.019531
-0.0039063
0
0.019531
0.0097656
0.0058594
0.019531
0.041016
-0.019531
-0.025391
-0.019531
-0.035156
-0.035156
-0.029297
-0.044922
-0.064453
-0.089844
-0.083984
-0.070313
-0.035156
-0.048828
-0.035156
-0.039063
-0.025391
-0.044922
-0.048828
-0.048828
-0.039063
-0.035156
-0.048828
-0.044922
-0.048828
0.0058594
0.0097656
-0.025391
-0.029297
-0.019531
-0.0039063
0.0097656
-0.013672
-0.013672
0
0.015625
0
0.015625
-0.0039063
0.015625
0.035156
0.019531
0.0058594
0.015625
0.076172
0.054688
0.050781
0.070313
0.085938
0.089844
0.070313
0.03125
0.0058594
-0.019531
-0.039063
-0.029297
-0.025391
-0.054688
-0.013672
0.070313
0.10547
0.11523
-0.20898
-0.45313
-0.49805
-0.49805
-0.44336
-0.34961
-0.17969
-0.11914
-0.080078
-0.054688
-0.054688
-0.048828
-0.044922
-0.054688
-0.058594
-0.048828
-0.048828
-0.025391
-0.019531
-0.0097656
-0.029297
-0.019531
-0.0097656
0.044922
-0.0097656
0.035156
0.076172
0.12109
0.14453
0.17969
0.15625
0.13477
0.080078
0.044922
0.0097656
-0.013672
-0.044922
-0.058594
-0.054688
-0.064453
-0.058594
-0.083984
-0.080078
-0.083984
-0.044922
-0.083984
-0.070313
-0.025391
-0.058594
-0.044922
-0.16016
-0.31445
-0.30469
-0.35938
-0.4043
-0.25
-0.16406
-0.058594
0.13086
0.17969
0.22461
0.16602
0.085938
0.089844
0.019531
0.025391
0.019531
0.03125
0.0097656
0.019531
0.03125
0.019531
0.025391
0.044922
0.019531
0.03125
0.044922
0.060547
0.044922
0.041016
0.044922
0.054688
0.070313
0.019531
0.050781
0.044922
0.035156
0.044922
0.041016
0.050781
0.035156
0.03125
0.019531
0.0058594
-0.0039063
0.0058594
0.035156
-0.019531
0.025391
-0.019531
-0.035156
-0.039063
-0.0097656
-0.013672
-0.025391
-0.029297
-0.025391
-0.025391
-0.044922
-0.025391
-0.048828
-0.029297
-0.044922
-0.025391
-0.058594
-0.070313
-0.029297
-0.064453
-0.074219
-0.058594
-0.070313
-0.074219
-0.080078
-0.054688
-0.054688
-0.048828
-0.070313
-0.048828
-0.074219
-0.080078
-0.048828
-0.054688
-0.064453
-0.048828
-0.029297
0.015625
0.03125
0
0.044922
0.041016
0.044922
0.041016
0.085938
0.054688
0.025391
-0.029297
-0.054688
-0.089844
-0.080078
-0.089844
-0.070313
-0.083984
0.015625
0.089844
0.019531
-0.22461
-0.46875
-0.49805
-0.49805
-0.49805
-0.375
-0.22852
-0.11523
-0.083984
-0.070313
-0.064453
-0.054688
-0.048828
-0.070313
-0.048828
-0.058594
-0.035156
-0.099609
-0.074219
-0.080078
-0.070313
-0.039063
-0.044922
-0.025391
-0.013672
-0.0039063
0
-0.0097656
0.041016
-0.029297
-0.025391
-0.048828
-0.064453
-0.058594
-0.083984
-0.099609
-0.11914
-0.125
-0.12891
-0.13867
-0.125
-0.11523
-0.080078
-0.064453
-0.12891
-0.11523
-0.083984
-0.058594
-0.054688
-0.058594
-0.035156
-0.025391
-0.029297
0
-0.0097656
0
0.015625
0.0097656
0.025391
0.019531
0.025391
0
0.019531
-0.0097656
0
-0.035156
-0.044922
-0.048828
-0.048828
-0.044922
-0.048828
-0.019531
-0.0039063
0
0.019531
0.035156
0.035156
0.060547
0.099609
0.11523
0.025391
-0.0039063
-0.0097656
-0.064453
-0.074219
-0.080078
-0.083984
-0.10938
-0.039063
0.025391
0.076172
-0.048828
-0.33398
-0.49805
-0.49805
-0.49805
-0.44922
-0.34375
-0.19922
-0.10352
-0.083984
-0.074219
-0.064453
-0.054688
-0.070313
-0.048828
-0.039063
-0.035156
-0.044922
-0.039063
-0.025391
0
-0.048828
-0.029297
-0.019531
-0.039063
-0.019531
-0.0039063
-0.013672
0
-0.0039063
-0.0097656
0
-0.013672
-0.019531
-0.039063
-0.044922
-0.054688
-0.019531
-0.083984
-0.09375
-0.074219
-0.070313
-0.058594
-0.074219
-0.083984
-0.070313
-0.048828
-0.054688
-0.048828
-0.025391
-0.013672
0
-0.0097656
0
-0.013672
0.025391
-0.0039063
-0.025391
-0.0097656
0.0097656
0.015625
0
0.015625
0.0097656
0.019531
0.0097656
0
-0.0097656
0.0058594
0.0097656
0.035156
-0.0039063
0.019531
0.03125
0.0058594
0.054688
0.064453
0.085938
0.080078
0.085938
0.03125
0.0058594
-0.029297
-0.054688
-0.025391
-0.019531
-0.09375
-0.080078
0
0.060547
0.089844
-0.099609
-0.35938
-0.49805
-0.49805
-0.49805
-0.43945
-0.27344
-0.11914
-0.083984
-0.058594
0.015625
-0.044922
-0.058594
-0.035156
-0.054688
-0.035156
-0.058594
-0.044922
-0.039063
-0.019531
-0.025391
-0.025391
-0.0097656
-0.0097656
-0.0097656
0.0058594
0
0.025391
0.019531
0.015625
0.015625
0.0097656
0.025391
-0.0097656
-0.025391
-0.035156
-0.048828
-0.064453
-0.054688
-0.070313
-0.074219
-0.064453
-0.019531
-0.070313
-0.080078
-0.070313
-0.048828
-0.058594
-0.039063
-0.044922
-0.029297
-0.025391
-0.025391
-0.013672
0.0097656
0.015625
0
0.035156
0.041016
0.054688
0.070313
0.015625
0.019531
0.03125
0.019531
0.015625
0.019531
0.0097656
0
0.019531
0.019531
0.044922
0.064453
0.080078
0.099609
0.15039
0.099609
0.11133
0.11523
0.054688
0.03125
-0.019531
-0.044922
-0.044922
-0.048828
-0.054688
-0.025391
-0.035156
0.025391
0.050781
-0.13477
-0.39844
-0.49805
-0.49805
-0.49805
-0.43945
-0.25977
-0.13867
-0.09375
-0.058594
-0.035156
-0.035156
-0.044922
-0.019531
-0.070313
-0.048828
-0.039063
-0.044922
-0.029297
-0.025391
-0.039063
-0.025391
-0.035156
-0.0097656
-0.0039063
-0.013672
0.041016
-0.0039063
0
0.015625
0.0097656
0.0058594
0.0097656
-0.013672
0.0058594
-0.058594
-0.09375
-0.083984
-0.09375
-0.058594
-0.11523
-0.10352
-0.10938
-0.09375
-0.10352
-0.099609
-0.099609
-0.074219
-0.058594
-0.089844
-0.080078
-0.044922
-0.0039063
-0.09375
-0.083984
-0.070313
-0.048828
-0.048828
-0.044922
-0.048828
-0.039063
-0.035156
-0.025391
-0.035156
-0.0039063
0.0058594
-0.080078
-0.083984
-0.054688
-0.048828
-0.044922
-0.0039063
0.019531
0.03125
0.054688
0.076172
0.085938
0.10547
0.035156
-0.013672
-0.054688
-0.064453
-0.09375
-0.11523
-0.12891
-0.10352
-0.025391
0.035156
0.080078
-0.074219
-0.33398
-0.49805
-0.49805
-0.49805
-0.41992
-0.33008
-0.20508
-0.13477
-0.099609
-0.058594
-0.064453
-0.035156
-0.044922
-0.029297
-0.025391
-0.035156
-0.025391
-0.025391
0
-0.013672
0.025391
-0.019531
-0.035156
-0.019531
0
-0.0039063
0.0058594
0
0.015625
0.03125
0.019531
0.0097656
0.015625
0.044922
-0.0039063
-0.048828
-0.044922
-0.048828
-0.058594
-0.074219
-0.070313
-0.048828
-0.044922
-0.054688
-0.029297
-0.044922
-0.048828
-0.025391
-0.058594
-0.025391
-0.013672
-0.035156
-0.044922
-0.025391
-0.0039063
0.0097656
0.019531
0
0
0
0.054688
0.015625
0.0097656
0.0097656
0.025391
0.054688
0.041016
0.035156
0.025391
0.019531
0.041016
0.070313
0.064453
0.044922
0.035156
0.054688
-0.039063
-0.044922
-0.025391
-0.048828
-0.039063
-0.044922
0.041016
0.10547
0.125
-0.14844
-0.39844
-0.49805
-0.49805
-0.47461
-0.32422
-0.19336
-0.09375
-0.048828
-0.025391
-0.0039063
0
0.019531
0
0.015625
0.019531
0
0.025391
-0.0039063
-0.025391
-0.029297
-0.019531
-0.025391
0
-0.025391
-0.0097656
-0.0097656
0.0058594
-0.013672
0
0.025391
0.035156
-0.035156
-0.044922
-0.013672
-0.025391
-0.025391
-0.054688
-0.064453
-0.064453
-0.074219
-0.058594
-0.064453
-0.064453
-0.039063
-0.0039063
-0.080078
-0.058594
-0.070313
-0.054688
-0.025391
-0.029297
0
-0.0039063
0
0
0
0.035156
-0.0039063
-0.025391
0
0
-0.0039063
0.015625
0.0058594
0
0.035156
0.015625
0
0.0097656
0.025391
0.054688
0.064453
0.099609
0.080078
0.080078
0.076172
0.089844
0.03125
0
-0.044922
-0.064453
-0.070313
-0.070313
-0.064453
-0.029297
0.060547
0.099609
0.15625
-0.17969
-0.42969
-0.49805
-0.49805
-0.47852
-0.38867
-0.20898
-0.10938
-0.070313
-0.035156
-0.025391
-0.0097656
0.025391
-0.019531
0.015625
0.03125
-0.0039063
-0.0097656
-0.0097656
0
-0.013672
-0.0039063
0
-0.013672
-0.019531
0.0058594
0.019531
0.054688
0.015625
0.015625
0.0058594
0.019531
0.025391
0.0058594
-0.0097656
-0.019531
-0.013672
0.015625
-0.054688
-0.064453
-0.058594
-0.054688
-0.048828
-0.044922
-0.035156
-0.044922
-0.025391
-0.0039063
0.0058594
0.019531
0.025391
0.035156
0.076172
0.11133
0.035156
0.041016
0.019531
0.03125
0.025391
0.044922
0.035156
0.041016
0.03125
0.044922
0.054688
0.070313
0.095703
0.11133
0.14453
0.11133
0.14063
0.15039
0.14063
0.16602
0.16992
0.095703
0.03125
0.0058594
-0.013672
-0.0039063
-0.035156
-0.048828
0.0058594
0
0.11133
0.16992
0.044922
-0.21875
-0.44336
-0.49805
-0.49805
-0.43945
-0.25391
-0.125
-0.070313
-0.019531
0.0097656
0.019531
0.019531
0.025391
0.035156
0.019531
0.054688
0.050781
0.03125
0.035156
-0.0039063
-0.025391
-0.035156
-0.048828
-0.048828
-0.044922
-0.09375
-0.10352
-0.125
-0.14453
-0.14844
-0.10938
-0.070313
-0.048828
0
-0.035156
-0.048828
-0.039063
-0.029297
-0.0039063
-0.044922
-0.058594
-0.074219
-0.070313
-0.054688
-0.058594
-0.070313
-0.074219
-0.029297
0.0097656
-0.025391
-0.029297
-0.025391
0.0058594
0.015625
-0.0039063
-0.0039063
0.0097656
0
-0.0039063
0.019531
0
0.0097656
0.0058594
0.035156
-0.0039063
0.019531
0
0.03125
0.041016
0.054688
0.060547
0.070313
0.085938
0.060547
0.076172
0.085938
0.064453
0.015625
-0.013672
0
-0.044922
-0.058594
-0.064453
-0.048828
-0.039063
0.03125
0.089844
0.12109
-0.080078
-0.34375
-0.49805
-0.49805
-0.49805
-0.39844
-0.21875
-0.080078
-0.029297
-0.019531
0.0097656
0
-0.0039063
0.03125
0.019531
0.019531
0.035156
0.03125
0.0097656
0.03125
0.019531
0.019531
0.015625
0.041016
-0.013672
0.035156
0.025391
0.03125
0.025391
0.044922
0.03125
0.015625
0.019531
0.0097656
0
-0.0097656
-0.035156
-0.039063
-0.019531
0.0058594
-0.029297
-0.025391
-0.025391
-0.039063
-0.035156
-0.019531
0
0.0097656
0.025391
0.041016
0.035156
0.044922
0.054688
0.070313
0.11523
0.12109
0.060547
0.044922
0.060547
0.070313
0.070313
0.064453
0.076172
0.089844
0.064453
0.054688
0.095703
0.050781
0.054688
0.076172
0.095703
0.10547
0.14063
0.16602
0.15039
0.17969
0.18555
0.11523
0.076172
0.085938
-0.013672
-0.025391
0.0058594
-0.0039063
-0.025391
0.064453
0.11523
0.13477
-0.09375
-0.33984
-0.47461
-0.49805
-0.4043
-0.34961
-0.16992
-0.080078
-0.025391
-0.0039063
0.041016
0.044922
0.041016
0.041016
0.044922
0.019531
0.015625
0.041016
0.085938
0.041016
0.0097656
0.019531
0.03125
0.035156
0.054688
0.064453
0.041016
0.044922
0.044922
0.060547
0.064453
0.044922
0.035156
0.044922
0.060547
0.041016
0.0097656
0.019531
-0.0039063
-0.0097656
-0.0039063
0.035156
0
-0.0097656
0
0.03125
0.041016
0
0.041016
0.03125
0.041016
0.019531
0.035156
0.044922
0.060547
0.064453
0.076172
0.085938
0.076172
0.064453
0.095703
0.070313
0.080078
0.054688
0.041016
0.03125
0.025391
0.060547
0.070313
0.076172
0.10547
0.12109
0.13086
0.14453
0.19531
0.21484
0.11133
0.041016
0.0058594
-0.013672
-0.019531
-0.035156
-0.025391
-0.0097656
0.019531
0.080078
0.15625
0
-0.2793
-0.46875
-0.49805
-0.48828
-0.42383
-0.28906
-0.12891
-0.070313
-0.025391
0
0
0.054688
0.015625
0.0058594
0.0097656
0
0.0058594
0.0097656
0.0058594
0.015625
0.019531
0.019531
0.019531
0.0097656
0.041016
0.076172
0.03125
0.0097656
0.025391
0.035156
0.035156
0.044922
0.041016
0.019531
0.019531
0.015625
0.0058594
0
0.019531
-0.044922
-0.019531
-0.044922
-0.048828
-0.025391
-0.039063
-0.025391
-0.013672
-0.0039063
0
0.035156
0.044922
0.041016
0.095703
0.015625
0.0058594
0.019531
0.035156
0.03125
0.041016
0.044922
0.025391
0.044922
0.03125
0.019531
0.041016
0.035156
0.095703
0.044922
0.085938
0.095703
0.11523
0.099609
0.12109
0.14063
0.11523
0.070313
0.019531
-0.0039063
0
-0.035156
0.0058594
-0.048828
-0.029297
0.050781
0.12109
0.14063
-0.16406
-0.41406
-0.49805
-0.49805
-0.48438
-0.375
-0.20508
-0.058594
-0.074219
-0.035156
-0.0097656
0.0058594
-0.0039063
0.0058594
0.025391
0.019531
0
-0.019531
-0.025391
0.03125
-0.019531
-0.035156
-0.035156
-0.0097656
-0.0039063
0.0097656
0.019531
-0.013672
-0.025391
0.0058594
0
-0.025391
0
0.019531
-0.035156
-0.044922
-0.054688
-0.070313
-0.074219
-0.035156
-0.074219
-0.080078
-0.058594
-0.025391
-0.070313
-0.070313
-0.048828
-0.044922
-0.019531
0
0.015625
0.041016
0.0097656
0.015625
0.0058594
0.015625
0.019531
0.035156
-0.019531
0
-0.0039063
0.0097656
0.019531
-0.0039063
-0.0097656
0.025391
0.041016
0.076172
0.070313
0.076172
0.089844
0.14453
0.10547
0.11133
0.060547
0
-0.025391
-0.044922
-0.070313
-0.074219
-0.054688
-0.083984
0
0.11133
0.10547
-0.035156
-0.30859
-0.49805
-0.49805
-0.49805
-0.45898
-0.30859
-0.16016
-0.10352
-0.044922
-0.054688
-0.035156
-0.0097656
0.03125
-0.019531
-0.029297
-0.013672
-0.025391
-0.013672
-0.025391
-0.0039063
-0.025391
-0.029297
-0.025391
-0.013672
-0.0097656
0.035156
-0.025391
-0.019531
-0.025391
-0.0039063
-0.025391
-0.025391
-0.039063
-0.039063
-0.044922
-0.048828
-0.035156
-0.044922
-0.019531
-0.058594
-0.070313
-0.039063
-0.074219
-0.058594
-0.048828
-0.039063
-0.025391
-0.0097656
-0.0039063
-0.013672
0.015625
0.0097656
0.015625
0.035156
0.064453
0
0.025391
0.03125
0.0058594
0.019531
0.0097656
0.0058594
0
0.015625
0.019531
0.044922
0
0.025391
0.044922
0.070313
0.099609
0.11523
0.125
0.14063
0.11523
0.14063
0.10547
0.064453
0
0.0097656
-0.044922
-0.048828
-0.025391
-0.0039063
0.060547
0.16016
0.14063
-0.039063
-0.29883
-0.48438
-0.49805
-0.45898
-0.36914
-0.20898
-0.044922
-0.0097656
0.015625
0.041016
0.044922
0.035156
0.050781
0.060547
0.076172
0.080078
0.064453
0.089844
0.076172
0.099609
0.10547
0.044922
0.041016
0.054688
0.076172
0.060547
0.054688
0.076172
0.099609
0.11133
0.125
0.14453
0.14063
0.044922
0.019531
0.025391
0.0097656
0.015625
0
0.019531
0.015625
0.035156
0.019531
0.050781
0.035156
0.041016
0.050781
0.10547
0.044922
0.076172
0.080078
0.070313
0.080078
0.10547
0.099609
0.089844
0.089844
0.095703
0.10547
0.099609
0.095703
0.11133
0.14453
0.060547
0.064453
0.13086
0.095703
0.076172
0.12109
0.13086
0.15625
0.16992
0.20117
0.18945
0.18555
0.13086
0.080078
0.089844
0.019531
-0.0039063
0.0097656
0.015625
-0.0097656
0.064453
0.13477
0.16602
0.015625
-0.23438
-0.43945
-0.48828
-0.46875
-0.375
-0.21484
-0.070313
-0.039063
0.019531
0.044922
0.044922
0.035156
0.080078
0.060547
0.041016
0.0097656
0.070313
0.025391
0.015625
0.025391
0.035156
0.041016
0.035156
0.060547
0.064453
0.044922
0.035156
0.070313
0.060547
0.064453
0.085938
0.044922
0.041016
0.044922
0.015625
0.019531
-0.0039063
0
-0.029297
-0.019531
0
-0.025391
-0.044922
-0.029297
0.019531
-0.013672
0
-0.019531
-0.0097656
-0.025391
0.015625
0.019531
0
0.015625
0.03125
0.025391
0.03125
0.019531
0.070313
0.019531
0.041016
0.025391
0.019531
0.041016
0.064453
0.070313
0.054688
0.050781
0.03125
0.054688
0.070313
0.064453
0.089844
0.019531
0.025391
-0.0039063
-0.048828
-0.044922
-0.029297
-0.058594
-0.035156
0.054688
0.11523
0.14453
-0.14844
-0.375
-0.49805
-0.49805
-0.47852
-0.375
-0.19336
-0.083984
-0.044922
-0.0097656
0.0058594
0
-0.0097656
0.0097656
0.0058594
0
0.044922
0.019531
0.019531
0
-0.0039063
-0.0097656
-0.0039063
-0.0039063
-0.0097656
0.015625
0.019531
0.085938
0.025391
0.019531
0.0058594
0.019531
0.0097656
0
-0.0097656
0
-0.048828
-0.054688
-0.039063
-0.064453
-0.070313
-0.029297
-0.048828
-0.083984
-0.058594
-0.044922
-0.035156
-0.048828
-0.039063
-0.013672
0
-0.0097656
0.03125
0.060547
0.015625
0.0097656
0.025391
0.019531
0.041016
0.044922
0.035156
0.044922
0.03125
0.041016
0.015625
0
0.019531
0.041016
0.125
0.085938
0.095703
0.10547
0.13086
0.14063
0.14063
0.089844
0.050781
0.015625
-0.035156
-0.048828
-0.058594
-0.019531
-0.054688
0.025391
0.070313
0.11523
0.13086
-0.19336
-0.44336
-0.49805
-0.49805
-0.48828
-0.36328
-0.19336
-0.12891
-0.09375
-0.070313
-0.048828
-0.039063
-0.035156
-0.039063
-0.019531
-0.039063
-0.048828
-0.044922
-0.048828
0
-0.035156
-0.048828
-0.025391
-0.044922
-0.039063
-0.025391
-0.013672
0
0.0097656
0.015625
-0.019531
0
-0.044922
-0.0039063
-0.048828
-0.025391
-0.074219
-0.09375
-0.099609
-0.074219
-0.074219
-0.064453
-0.058594
-0.074219
-0.070313
-0.048828
-0.0097656
-0.048828
-0.035156
-0.029297
-0.025391
-0.013672
-0.029297
-0.025391
0
0.0097656
0.015625
0.0097656
0.015625
0.025391
0.041016
0.054688
0.019531
0.035156
0.076172
0.080078
0.050781
0.035156
0.064453
0.064453
0.085938
0.099609
0.13086
0.16602
0.070313
0.03125
-0.0039063
-0.029297
-0.058594
-0.039063
-0.054688
-0.048828
0.0058594
0.070313
0.095703
0.11133
-0.21484
-0.48828
-0.49805
-0.49805
-0.48438
-0.34375
-0.18359
-0.10938
-0.064453
-0.025391
0.015625
-0.0097656
-0.025391
-0.029297
-0.025391
0.015625
-0.048828
-0.039063
-0.048828
-0.025391
-0.029297
-0.025391
0.0058594
-0.0039063
0.025391
0.050781
0.0058594
0.0097656
-0.025391
-0.0097656
-0.025391
-0.019531
0
0.0058594
-0.0097656
-0.0039063
-0.019531
-0.044922
-0.048828
-0.035156
-0.039063
0
0.03125
-0.039063
-0.019531
-0.029297
-0.044922
-0.0097656
-0.0097656
-0.013672
-0.025391
-0.025391
-0.0097656
0
0.0097656
0.015625
0.019531
0.041016
0.095703
0.050781
0.041016
0.041016
0.035156
0.080078
0.12109
0.025391
0.044922
0.085938
0.125
0.13086
0.12109
0.16016
0.19531
0.20508
0.17969
0.14453
0.080078
0.050781
0.050781
0.0097656
0
0
0.015625
0.054688
0.125
0.16992
0.18945
-0.22461
-0.41992
-0.46875
-0.49414
-0.42383
-0.29883
-0.12891
-0.044922
-0.0039063
0.0097656
0.019531
0.054688
0.095703
0.025391
0.044922
0.019531
0.019531
0.0058594
0.015625
0.041016
0.070313
0.041016
0.035156
0.041016
0.080078
0.044922
0.041016
0.11133
0.070313
0.070313
0.080078
0.085938
0.070313
0.070313
0.035156
0.054688
0.0097656
0
0.015625
0.064453
0.015625
0.035156
0.044922
0.064453
0.070313
0.060547
0.089844
0.11523
0.089844
0.076172
0.14063
0.060547
0.054688
0.070313
0.089844
0.095703
0.10547
0.11523
0.12109
0.13086
0.12109
0.11523
0.11523
0.11523
0.13086
0.13477
0.099609
0.12109
0.13477
0.16602
0.18945
0.2207
0.23047
0.18555
0.15625
0.099609
0.0097656
0
0
-0.0039063
0
-0.0097656
0.035156
0.11133
0.15625
0.03125
-0.23438
-0.44922
-0.49805
-0.43945
-0.36914
-0.24023
-0.11523
-0.019531
0.035156
0
0.0097656
0.025391
0.0058594
0.025391
0.019531
0.03125
0.035156
0.025391
0.064453
0.0058594
0.0097656
0.054688
0.025391
0.0058594
0.041016
0.044922
0.035156
0.064453
0.070313
0.050781
0.054688
0.089844
0.044922
0.015625
0.0058594
0.0097656
-0.019531
-0.025391
-0.019531
-0.048828
-0.039063
0.060547
0.076172
-0.080078
-0.074219
-0.054688
-0.058594
-0.029297
-0.019531
-0.013672
0.0097656
0.019531
0.03125
0.035156
0.015625
0.044922
0.060547
0.070313
0.015625
0.025391
0.03125
0.019531
0.019531
0.044922
0.060547
0.044922
0.10547
0.095703
0.13086
0.060547
0.080078
0.076172
0.11133
0.076172
0.015625
-0.013672
-0.044922
-0.048828
-0.054688
-0.070313
-0.039063
-0.048828
0.076172
0.070313
0.14063
-0.17969
-0.46875
-0.49805
-0.49805
-0.49805
-0.39453
-0.21484
-0.099609
-0.044922
-0.029297
-0.019531
0.019531
-0.013672
-0.019531
0
-0.013672
-0.025391
-0.029297
-0.035156
-0.013672
-0.035156
-0.044922
0.0097656
-0.044922
-0.039063
-0.044922
0.0097656
-0.029297
0.0058594
0
-0.0039063
0.0097656
-0.0039063
-0.025391
-0.048828
-0.058594
-0.048828
-0.074219
-0.080078
-0.074219
-0.070313
-0.013672
-0.074219
-0.029297
-0.083984
-0.048828
-0.039063
-0.035156
-0.048828
-0.029297
-0.025391
0
-0.0097656
-0.013672
-0.0097656
0.0058594
0.041016
0.0097656
0.025391
0.050781
0.03125
0.044922
0.019531
0.044922
0.019531
0.041016
0.060547
0.076172
0.089844
0.13086
0.076172
0.10547
0.11523
0.041016
0
-0.044922
-0.054688
-0.074219
-0.074219
-0.054688
-0.11914
-0.058594
0.054688
0.10547
0.035156
-0.29492
-0.48438
-0.49805
-0.49805
-0.49805
-0.35938
-0.20508
-0.10352
-0.058594
-0.058594
-0.039063
-0.044922
-0.0039063
0.0097656
-0.048828
-0.044922
-0.025391
0.0058594
-0.048828
-0.09375
-0.080078
-0.083984
-0.074219
-0.054688
-0.029297
-0.035156
-0.035156
-0.044922
0.0058594
-0.048828
-0.044922
-0.054688
-0.058594
-0.048828
-0.080078
-0.080078
-0.074219
-0.09375
-0.074219
-0.048828
-0.083984
-0.064453
-0.070313
0
-0.080078
-0.048828
-0.064453
-0.044922
-0.039063
-0.048828
-0.029297
-0.0097656
-0.029297
-0.035156
-0.0097656
-0.035156
-0.035156
0.025391
-0.0097656
-0.025391
-0.0097656
0.015625
-0.013672
0.03125
-0.0097656
0
0.0058594
0.044922
0.060547
0.035156
0.064453
0.070313
0.064453
0.089844
0.054688
0.0058594
-0.048828
-0.074219
-0.083984
-0.048828
-0.025391
-0.080078
-0.11914
-0.0097656
0.019531
0.025391
-0.25391
-0.49805
-0.49805
-0.49805
-0.49805
-0.36328
-0.18945
-0.099609
-0.044922
-0.025391
-0.070313
-0.044922
-0.058594
-0.044922
-0.039063
-0.058594
-0.0097656
-0.048828
-0.074219
-0.074219
-0.058594
-0.048828
-0.070313
-0.058594
-0.025391
-0.0097656
0.025391
0.035156
-0.013672
-0.0039063
0
-0.025391
-0.0097656
0.0058594
-0.048828
-0.074219
-0.029297
-0.058594
-0.074219
-0.080078
-0.058594
-0.048828
-0.039063
-0.025391
-0.025391
-0.029297
0.041016
0.070313
-0.044922
-0.019531
-0.0039063
-0.013672
-0.0039063
0.035156
0
0.0097656
0.019531
0.015625
0.019531
0.015625
0.03125
0.054688
-0.0039063
0.0097656
0.015625
0.0097656
0.080078
0.050781
0.041016
0.050781
0.11133
0.099609
0.085938
0.10547
0.11133
0.041016
-0.0039063
-0.058594
-0.070313
-0.048828
-0.0097656
-0.09375
-0.099609
0.025391
0.060547
0.070313
-0.22852
-0.47461
-0.49805
-0.49805
-0.47461
-0.36328
-0.17383
-0.054688
-0.048828
-0.025391
0
0.0097656
-0.0039063
-0.0097656
0.041016
0
0.03125
-0.013672
0
0
-0.0097656
0.0097656
0.015625
0.025391
0.041016
0.03125
0.064453
0.070313
0.019531
0.080078
0.095703
0.019531
0.025391
-0.013672
-0.025391
-0.035156
-0.054688
-0.048828
-0.048828
-0.044922
-0.048828
-0.044922
-0.025391
-0.035156
0.015625
-0.025391
-0.044922
-0.025391
-0.0097656
-0.013672
0.03125
-0.019531
-0.013672
0.0097656
0.019531
0
0.019531
0.035156
0.015625
0.0058594
0.076172
0.080078
-0.0039063
0.0058594
0.064453
0.041016
0.03125
0.070313
0.064453
0.099609
0.11133
0.14063
0.12109
0.099609
0.080078
0.044922
-0.019531
-0.029297
-0.064453
-0.025391
-0.064453
-0.044922
0.035156
0.089844
0.125
-0.10352
-0.38477
-0.49805
-0.49805
-0.49805
-0.42969
-0.25
-0.11523
-0.080078
-0.029297
-0.019531
0.044922
-0.0039063
-0.013672
-0.029297
-0.029297
-0.039063
-0.035156
-0.039063
0
-0.064453
-0.039063
-0.0097656
-0.019531
-0.025391
0.0058594
0.019531
0.054688
0.0058594
0
0.0058594
0
0
0.041016
-0.019531
-0.039063
-0.0097656
-0.064453
-0.074219
-0.058594
-0.064453
-0.029297
-0.025391
-0.035156
-0.029297
0.019531
-0.025391
0.0097656
-0.035156
-0.019531
0.019531
0.015625
0.044922
0.041016
0.050781
0.064453
0.044922
0.060547
0.050781
0.044922
0.041016
0.070313
0.089844
0.12109
0.019531
0.060547
0.095703
0.10547
0.080078
0.089844
0.089844
0.11523
0.13477
0.076172
0.025391
-0.013672
0.0058594
-0.074219
-0.10938
-0.11523
-0.089844
-0.09375
0.025391
0.080078
0.095703
-0.21875
-0.43945
-0.49805
-0.49805
-0.46484
-0.34961
-0.21875
-0.11914
-0.089844
-0.048828
-0.035156
-0.0039063
0.0058594
-0.0039063
-0.013672
-0.013672
-0.029297
-0.013672
-0.048828
-0.054688
-0.029297
-0.019531
-0.064453
-0.099609
-0.083984
-0.089844
-0.048828
-0.048828
-0.013672
-0.029297
-0.039063
-0.048828
-0.054688
-0.070313
-0.039063
-0.074219
-0.074219
-0.083984
-0.089844
-0.074219
-0.064453
-0.064453
-0.039063
-0.044922
-0.013672
0
-0.025391
0.0058594
-0.048828
0.0058594
-0.029297
-0.0039063
-0.019531
0.0058594
0
0.0097656
-0.025391
0.0058594
0.025391
0.0058594
0.0097656
0.015625
0.03125
0.025391
0.076172
0.060547
0.041016
0.050781
0.054688
0.089844
0.10547
0.089844
0.085938
0.099609
0.0058594
-0.025391
-0.083984
-0.11523
-0.09375
-0.054688
-0.10938
-0.11523
-0.019531
0.015625
0.041016
-0.19922
-0.42383
-0.49805
-0.49805
-0.49805
-0.47852
-0.29492
-0.17969
-0.10352
-0.058594
-0.089844
-0.070313
-0.074219
-0.083984
-0.074219
-0.070313
-0.089844
-0.064453
-0.035156
-0.074219
-0.064453
-0.074219
-0.048828
-0.09375
-0.070313
-0.054688
-0.044922
-0.074219
-0.039063
-0.058594
-0.074219
-0.044922
-0.035156
-0.035156
-0.089844
-0.089844
-0.10938
-0.099609
-0.125
-0.10938
-0.11523
-0.099609
-0.074219
-0.11523
-0.099609
-0.083984
-0.058594
-0.054688
-0.070313
-0.029297
-0.064453
-0.035156
-0.039063
-0.029297
-0.035156
-0.025391
0.0097656
-0.035156
0.0058594
0.0097656
0.064453
0.076172
-0.013672
-0.019531
0.015625
-0.0039063
-0.0097656
0.03125
0.064453
0.070313
0.095703
0.11523
0.14063
0.16016
0.12109
0.16992
0.054688
0.0058594
-0.019531
-0.025391
-0.0039063
-0.035156
-0.035156
-0.029297
0.041016
0.14063
0.11133
-0.09375
-0.375
-0.49805
-0.48828
-0.49805
-0.38867
-0.21875
-0.083984
-0.039063
0.025391
0.041016
-0.025391
-0.0039063
0
0.015625
0.025391
-0.0039063
0.035156
-0.029297
-0.0097656
0.03125
0.044922
0
-0.019531
-0.0039063
0.019531
0.03125
0.041016
0.089844
0.11133
0.019531
0.03125
0.064453
0.0097656
-0.019531
0
-0.0097656
-0.0039063
-0.048828
-0.044922
-0.048828
-0.035156
-0.029297
-0.058594
-0.035156
0.015625
-0.019531
0.035156
-0.0097656
-0.029297
0
-0.0039063
0.0058594
0.03125
0.035156
0.015625
0.035156
0.015625
0.035156
0.050781
0.076172
0.0097656
0.060547
-0.0039063
-0.013672
0.025391
0.041016
0.044922
0.070313
0.076172
0.054688
0.125
0.089844
0.15039
0.089844
0.019531
-0.025391
-0.044922
-0.054688
-0.048828
-0.074219
-0.058594
-0.074219
0.0097656
0.044922
0.085938
-0.048828
-0.38867
-0.49805
-0.49805
-0.49805
-0.43359
-0.28516
-0.1543
-0.089844
-0.044922
0.0097656
-0.039063
-0.013672
-0.035156
-0.013672
0.0097656
-0.029297
-0.048828
-0.019531
-0.019531
-0.013672
-0.0039063
0
0.050781
0.015625
-0.019531
0.0058594
0.0058594
0.025391
0.041016
0.03125
0.080078
0.0097656
0.080078
0.015625
-0.025391
-0.029297
-0.013672
0
0.0058594
-0.019531
-0.013672
-0.025391
-0.013672
-0.039063
0.015625
0.035156
-0.048828
-0.035156
-0.0097656
-0.013672
0.041016
0.035156
0.054688
0.041016
0.044922
0.035156
0.03125
0.064453
0.089844
0.041016
0.044922
0.015625
0.019531
0.03125
0.0097656
0.054688
0.076172
0.14063
0.17578
0.10547
0.095703
0.16992
0.13477
0.11523
0.076172
0.03125
0
-0.0039063
0.03125
-0.019531
-0.064453
-0.054688
0.025391
0.10547
0.13477
0.064453
-0.25977
-0.48438
-0.49805
-0.49805
-0.46484
-0.28906
-0.12891
-0.048828
0
0.035156
0.060547
0.03125
0.085938
0.019531
0.050781
0
0.019531
0
0.015625
-0.019531
-0.025391
-0.0039063
-0.0097656
-0.013672
0.035156
0
0.015625
0.025391
0.041016
0.064453
0.03125
0.025391
0.015625
0.019531
0.054688
0.025391
0.0058594
-0.029297
-0.025391
-0.013672
-0.0097656
-0.019531
-0.0097656
0.019531
-0.025391
0.0097656
0.019531
-0.0039063
-0.0097656
0.050781
0.054688
0.044922
0.054688
0.054688
0.060547
0.070313
0.10547
0.125
0.13477
0.064453
0.044922
0.064453
0.085938
0.044922
0.060547
0.076172
0.099609
0.125
0.14453
0.19531
0.14063
0.13477
0.17969
0.19531
0.089844
0.035156
-0.013672
-0.048828
-0.019531
0.0058594
-0.064453
-0.044922
0.054688
0.11523
0.21094
-0.035156
-0.30859
-0.45898
-0.48828
-0.44336
-0.39453
-0.22852
-0.074219
-0.035156
-0.019531
0
0
0.0097656
0.019531
0.03125
0.099609
0.0058594
0
-0.0097656
0
0
0.0058594
0.044922
-0.019531
0
0.015625
0
0
0.03125
0.050781
0.015625
0.019531
0.015625
-0.0039063
0.015625
-0.0097656
0.041016
-0.048828
-0.048828
-0.035156
-0.048828
-0.044922
-0.029297
-0.025391
0
0.025391
-0.019531
-0.0097656
0
0.0058594
0.060547
0.015625
0.0097656
0.015625
0
-0.0039063
0.0097656
0.015625
0.019531
0.041016
0.054688
0.025391
0.076172
0.015625
0.035156
0.015625
0
0.0097656
0.044922
0.060547
0.054688
0.11523
0.15625
0.17969
0.13477
0.17578
0.24023
0.12109
0.089844
0.064453
0.041016
0.019531
0.015625
0.054688
0.0058594
0.019531
0.089844
0.15625
0.22461
-0.080078
-0.33984
-0.47461
-0.48828
-0.42383
-0.32422
-0.14453
0.03125
0.035156
0.015625
0.064453
0.050781
0.12109
0.044922
0.03125
0.025391
0.041016
0.044922
0.03125
0.025391
0.085938
0.015625
0.041016
0.050781
0.019531
0.060547
0.10547
0.064453
0.11133
0.060547
0.044922
0.060547
0.050781
0.03125
0.041016
0
-0.013672
-0.019531
0.0097656
-0.019531
0.050781
-0.029297
-0.054688
-0.048828
-0.058594
-0.013672
-0.019531
-0.035156
-0.0097656
0.0058594
0.015625
0
0.076172
-0.013672
0
0.015625
0.035156
0.025391
0.070313
0.085938
0.070313
0.03125
0.0097656
0.015625
-0.0097656
0
-0.025391
-0.0039063
0.015625
0.0097656
0.041016
0.10547
0.080078
0.125
0.13086
0.089844
0.10547
0.054688
0.0097656
-0.054688
-0.064453
-0.070313
-0.054688
-0.074219
-0.029297
0.0058594
0.041016
0.076172
-0.12891
-0.38477
-0.49805
-0.49805
-0.49805
-0.41992
-0.25391
-0.10938
-0.064453
-0.035156
-0.048828
0.015625
-0.013672
-0.054688
-0.048828
-0.039063
-0.044922
-0.025391
-0.019531
-0.025391
-0.019531
0
0.044922
-0.025391
-0.025391
-0.013672
-0.019531
0.064453
-0.0039063
0.0097656
0
0.0058594
0
0.041016
-0.035156
-0.013672
-0.035156
-0.054688
-0.044922
-0.048828
-0.070313
-0.054688
-0.019531
0
-0.048828
-0.035156
0
-0.064453
-0.029297
-0.048828
-0.039063
-0.019531
-0.0039063
-0.0039063
0.035156
0.044922
0.070313
0.095703
0.064453
0.085938
0.015625
0.019531
0.080078
0.085938
0.019531
0.0058594
0.050781
0.070313
0.03125
0.095703
0.064453
0.076172
0.11133
0.125
0.13477
0.14453
0.11523
0.064453
0.019531
-0.029297
-0.0039063
-0.064453
-0.044922
-0.080078
-0.083984
0.035156
0.089844
0.13477
-0.064453
-0.41406
-0.49805
-0.49805
-0.49805
-0.41406
-0.25977
-0.12891
-0.074219
-0.035156
-0.0039063
-0.074219
-0.080078
-0.039063
-0.064453
-0.080078
-0.064453
-0.064453
-0.054688
-0.058594
-0.048828
-0.019531
-0.048828
-0.048828
-0.025391
-0.044922
-0.029297
0.03125
-0.048828
-0.070313
-0.048828
-0.048828
-0.048828
-0.048828
-0.054688
-0.054688
-0.064453
-0.044922
-0.074219
-0.058594
-0.13477
-0.125
-0.10938
-0.099609
-0.089844
-0.083984
-0.058594
-0.029297
-0.048828
-0.039063
-0.044922
-0.0097656
0.060547
-0.035156
-0.013672
-0.0039063
-0.025391
-0.025391
-0.025391
-0.029297
-0.013672
-0.029297
0.035156
-0.039063
-0.0097656
-0.044922
-0.0097656
-0.048828
-0.029297
-0.013672
0.0058594
0.019531
0.041016
0.03125
0.064453
0.03125
-0.0039063
-0.044922
-0.070313
-0.10352
-0.11914
-0.083984
-0.11914
-0.099609
-0.13867
-0.039063
0.0097656
0.044922
-0.20898
-0.44336
-0.49805
-0.49805
-0.49805
-0.43359
-0.25
-0.1543
-0.11914
-0.070313
-0.064453
-0.029297
-0.054688
0
-0.048828
-0.025391
0
0
-0.013672
-0.025391
-0.048828
-0.048828
-0.035156
0.015625
0.025391
0.041016
0
0.054688
0.019531
0
0.015625
-0.013672
0
-0.0039063
-0.013672
0.0058594
-0.025391
-0.029297
0.03125
0.0058594
0.019531
-0.025391
0
0.0058594
0.0097656
0.019531
0.015625
0.0097656
0.03125
0.025391
0.089844
0.095703
0.050781
0.076172
0.0097656
0.035156
0.025391
0.054688
0.041016
0.054688
0.03125
0.035156
0.019531
0.019531
0.070313
0.019531
-0.0039063
0.0097656
-0.0097656
0.0058594
0.054688
0.041016
0.080078
0.11133
0.11523
0.11523
0.14063
0.15039
0.21484
0.11133
0.064453
0.044922
0.03125
0.041016
0.015625
0.050781
0.0058594
0.11523
0.16016
0.19531
-0.070313
-0.33008
-0.46875
-0.49414
-0.45313
-0.36914
-0.19922
-0.074219
-0.013672
0.054688
0.080078
0.025391
0.015625
0.03125
0.076172
0.044922
0.015625
0.035156
0.015625
0.035156
0.019531
0.035156
0.025391
0.019531
0.015625
0.044922
0.076172
0.080078
0.025391
0.0097656
0.041016
0.054688
0.054688
0.035156
0
-0.013672
-0.019531
0.0058594
-0.0097656
-0.025391
0
-0.025391
0.060547
-0.035156
-0.048828
-0.025391
0.0058594
0.019531
0.041016
0.019531
0.035156
0.025391
0.076172
0.060547
0.050781
0.044922
0.11133
0.054688
0.060547
0.070313
0.076172
0.085938
0.064453
0.070313
0.076172
0.11523
0.12109
0.041016
0.050781
0.054688
0.11523
0.10547
0.085938
0.11523
0.125
0.17578
0.13477
0.11133
0.054688
0.025391
0.015625
-0.019531
-0.029297
-0.035156
0.015625
0
0.070313
0.099609
0.11523
-0.21484
-0.43945
-0.49805
-0.49805
-0.47852
-0.34961
-0.16406
-0.083984
0.019531
0.03125
-0.044922
-0.0097656
-0.013672
0.015625
-0.013672
-0.0039063
-0.019531
0.019531
-0.044922
-0.054688
-0.048828
-0.029297
-0.013672
0.035156
0.0058594
-0.025391
-0.013672
-0.019531
0.0058594
0.035156
-0.0097656
0.019531
-0.029297
-0.019531
-0.048828
-0.064453
0.0058594
-0.074219
-0.099609
-0.083984
-0.09375
-0.029297
-0.083984
-0.09375
-0.080078
-0.064453
-0.025391
-0.044922
-0.048828
0
0.025391
0.041016
0.076172
0.050781
0.025391
0.044922
0.064453
0.054688
0.060547
0.050781
0.054688
0.060547
0.044922
0.054688
0.099609
0.041016
0.044922
0.089844
0.12109
0.064453
0.089844
0.089844
0.11523
0.11523
0.15039
0.18555
0.089844
0.025391
-0.0097656
-0.035156
-0.048828
-0.074219
-0.074219
-0.044922
-0.048828
0.019531
0.099609
0.10547
-0.12891
-0.375
-0.49805
-0.49805
-0.49805
-0.46484
-0.26953
-0.1543
-0.083984
-0.09375
-0.058594
-0.019531
-0.064453
-0.054688
-0.048828
-0.025391
-0.025391
0
-0.019531
-0.025391
-0.029297
0.0097656
-0.048828
-0.035156
-0.0039063
-0.044922
-0.025391
0.0058594
0.041016
-0.013672
-0.019531
-0.0097656
-0.035156
-0.044922
-0.019531
-0.013672
-0.064453
-0.074219
-0.029297
-0.089844
-0.058594
-0.089844
-0.099609
-0.10352
-0.09375
-0.074219
-0.013672
-0.035156
-0.029297
-0.035156
0.0058594
-0.029297
-0.025391
-0.048828
-0.019531
-0.025391
-0.025391
-0.019531
-0.035156
-0.029297
-0.0039063
-0.025391
0.044922
-0.029297
-0.044922
-0.0039063
0.035156
-0.039063
-0.0097656
0.0097656
0.050781
0.089844
0.064453
0.085938
0.080078
0.089844
0.11523
0.054688
0
-0.019531
0
-0.074219
-0.099609
-0.10352
-0.09375
-0.013672
0.064453
0.11133
-0.058594
-0.28906
-0.49805
-0.49805
-0.49805
-0.47461
-0.32422
-0.16992
-0.099609
-0.074219
-0.064453
-0.019531
-0.035156
-0.0039063
-0.029297
-0.044922
-0.035156
-0.019531
-0.039063
-0.025391
-0.0039063
0.019531
-0.035156
-0.025391
-0.013672
0.070313
-0.035156
-0.013672
-0.019531
-0.0039063
0.0058594
0.019531
0.025391
-0.0097656
-0.035156
-0.025391
-0.039063
-0.0097656
-0.039063
-0.083984
-0.080078
-0.064453
-0.058594
-0.058594
-0.048828
-0.039063
0
0.025391
-0.019531
-0.0097656
0.015625
0.064453
0.015625
0.019531
0.050781
0.11133
0.03125
0.015625
0.035156
0.019531
0.025391
0.044922
0.054688
0.050781
0.11523
0.13086
0.03125
0.044922
0.050781
0.064453
0.085938
0.13477
0.15039
0.12109
0.14063
0.18945
0.20117
0.23047
0.21094
0.125
0.060547
0.044922
0.025391
0.03125
0.015625
0.015625
0.015625
0.11133
0.17578
0.23438
-0.039063
-0.30469
-0.48438
-0.43945
-0.45313
-0.35938
-0.18945
-0.029297
0.0097656
0.099609
0.11133
0.070313
0.064453
0.085938
0.089844
0.076172
0.085938
0.13477
0.085938
0.076172
0.070313
0.10547
0.050781
0.054688
0.080078
0.089844
0.089844
0.11133
0.10547
0.12109
0.11133
0.15039
0.070313
0.064453
0.089844
0.041016
0.015625
0.044922
0.015625
0.03125
0.019531
0.044922
0.099609
0
0.054688
0.060547
0.035156
0.054688
0.064453
0.064453
0.060547
0.076172
0.089844
0.089844
0.11523
0.13477
0.15625
0.11133
0.14063
0.089844
0.089844
0.080078
0.089844
0.089844
0.089844
0.099609
0.14453
0.085938
0.080078
0.11523
0.13086
0.12109
0.15625
0.18945
0.22461
0.18555
0.20117
0.21094
0.099609
0.050781
0.015625
0.015625
0
-0.0039063
0.0097656
0.064453
0.17578
0.18945
0.070313
-0.17969
-0.39453
-0.47852
-0.49805
-0.375
-0.2793
-0.089844
-0.029297
0.03125
0.0097656
0.035156
0.064453
0.060547
0.125
0.044922
0.044922
0.076172
0.099609
0.10547
0.041016
0.054688
0.085938
0.044922
0.064453
0.099609
0.14063
0.13086
0.076172
0.085938
0.089844
0.085938
0.099609
0.099609
0.089844
0.089844
0.076172
0.054688
0.070313
0.050781
0.095703
0.041016
0.060547
0.015625
0.035156
0.035156
0.03125
0.035156
0.03125
0.085938
0.054688
0.064453
0.076172
0.089844
0.099609
0.089844
0.076172
0.12109
0.14063
0.080078
0.12109
0.080078
0.11133
0.044922
0.064453
0.060547
0.070313
0.044922
0.080078
0.085938
0.076172
0.125
0.17578
0.089844
0.11133
0.15625
0.16016
0.13477
0.10547
0.054688
0.041016
0.019531
0.015625
0.070313
0
0.03125
0.16992
0.16016
0.17969
-0.11523
-0.31445
-0.47461
-0.49805
-0.41992
-0.28516
-0.11914
-0.019531
0.035156
0.095703
0.099609
0.070313
0.12109
0.089844
0.095703
0.044922
0.03125
0.019531
0.015625
0.0058594
-0.0039063
-0.019531
-0.0039063
-0.0097656
0
0.041016
0.080078
0.019531
0.060547
0.019531
0.03125
0.044922
0.050781
0.044922
0.019531
0
-0.0097656
0.041016
-0.025391
-0.013672
0
0.025391
0.060547
0.025391
0.0058594
0
0.03125
0.041016
-0.025391
-0.013672
0
0.015625
0
0.019531
0.0097656
0.015625
0.035156
0.0058594
0.019531
-0.044922
-0.013672
-0.0039063
-0.025391
-0.048828
-0.058594
-0.054688
-0.039063
-0.048828
-0.0097656
-0.048828
0.041016
-0.025391
0.019531
0.044922
0.080078
0.099609
0.076172
0.015625
-0.025391
-0.035156
-0.044922
-0.013672
-0.074219
-0.080078
0.015625
0.050781
0.10547
0.14063
-0.17969
-0.42969
-0.48828
-0.49805
-0.45898
-0.33008
-0.17969
-0.058594
-0.025391
0.041016
0.025391
0.035156
0.054688
0
0.019531
0.041016
-0.013672
-0.025391
-0.044922
-0.039063
-0.025391
-0.058594
-0.048828
-0.054688
-0.029297
-0.039063
0.03125
0.054688
-0.048828
-0.054688
-0.039063
-0.029297
0.0097656
-0.013672
-0.025391
-0.039063
0
-0.048828
-0.044922
-0.048828
-0.058594
-0.070313
-0.025391
-0.089844
-0.09375
-0.054688
-0.09375
-0.064453
-0.11523
-0.099609
-0.11914
-0.10938
-0.09375
-0.080078
-0.070313
-0.025391
-0.074219
-0.044922
-0.0097656
0.015625
-0.035156
-0.0039063
0
-0.0097656
0.019531
-0.013672
0.0058594
0.025391
0.070313
-0.039063
-0.0039063
0.044922
0.089844
0.099609
0.10547
0.13086
0.13477
0.15625
0.18555
0.080078
0.035156
-0.039063
-0.058594
-0.039063
-0.035156
-0.10938
-0.064453
0.015625
0.10547
0.11523
-0.18945
-0.43945
-0.49805
-0.49805
-0.49805
-0.4082
-0.19922
-0.09375
-0.099609
-0.029297
0.025391
-0.029297
-0.025391
-0.0039063
-0.0097656
-0.025391
-0.019531
0
-0.029297
-0.039063
-0.013672
0.0097656
-0.054688
-0.039063
-0.054688
-0.048828
-0.035156
-0.013672
-0.019531
-0.0039063
0
-0.029297
-0.039063
0.0097656
-0.054688
-0.029297
-0.080078
-0.083984
-0.064453
-0.070313
-0.080078
-0.09375
-0.080078
-0.070313
-0.035156
0.0058594
-0.054688
-0.064453
-0.039063
0.015625
-0.029297
-0.035156
-0.044922
0
0.041016
0
0.019531
0
0
0
0
0.019531
0.050781
0.070313
-0.025391
-0.054688
-0.048828
-0.025391
-0.019531
0.0097656
0.035156
0.03125
0.070313
0.085938
0.095703
0.125
0.085938
0.099609
-0.054688
-0.074219
-0.09375
-0.10352
-0.064453
-0.10938
-0.099609
-0.029297
0.025391
0.060547
-0.10938
-0.34961
-0.49805
-0.49805
-0.49805
-0.46875
-0.33008
-0.17383
-0.070313
-0.09375
-0.064453
-0.025391
-0.019531
-0.039063
-0.058594
-0.0039063
-0.064453
-0.048828
0
-0.054688
-0.025391
-0.0097656
-0.029297
-0.013672
0
-0.0097656
-0.0039063
0.035156
0.035156
0
0.015625
0.015625
-0.0097656
-0.013672
-0.029297
-0.039063
-0.035156
-0.044922
-0.0097656
-0.058594
-0.029297
-0.039063
0.0058594
-0.064453
-0.074219
-0.080078
-0.054688
-0.039063
0.035156
-0.019531
-0.0097656
0
0.025391
0.019531
0.044922
0.050781
0.064453
0.03125
0.015625
0.050781
0.0097656
0.015625
0.0097656
0.019531
0.019531
0.025391
0.044922
0.025391
0.041016
0.050781
0.089844
0.16992
0.085938
0.076172
0.12109
0.125
0.14063
0.095703
0
-0.013672
-0.048828
-0.048828
-0.035156
-0.039063
-0.048828
0.03125
0.11523
0.14453
0.035156
-0.27344
-0.49805
-0.49805
-0.49805
-0.46484
-0.30859
-0.1543
-0.080078
-0.048828
-0.029297
-0.029297
0
0.019531
0.015625
-0.058594
-0.070313
-0.035156
-0.083984
-0.070313
-0.074219
-0.064453
-0.058594
-0.080078
-0.044922
-0.029297
-0.039063
-0.025391
0.03125
0.041016
-0.029297
-0.054688
-0.048828
-0.044922
-0.048828
-0.0039063
-0.074219
-0.070313
-0.064453
-0.080078
-0.074219
-0.083984
-0.074219
-0.054688
-0.039063
-0.013672
0.019531
0.050781
-0.048828
-0.019531
0.0058594
-0.0039063
0.03125
-0.025391
-0.013672
0.0097656
0.0097656
0.0097656
0
0.019531
0.035156
0.044922
0.041016
0.080078
0.11523
0.03125
0.070313
-0.025391
0.0097656
0.03125
0.054688
0.070313
0.089844
0.095703
0.11523
0.11523
0.095703
0.041016
0.0097656
-0.025391
-0.0039063
-0.058594
-0.083984
-0.039063
-0.09375
0
0.060547
0.11133
-0.080078
-0.33398
-0.49805
-0.49805
-0.49805
-0.44922
-0.28516
-0.13477
-0.099609
-0.058594
-0.048828
-0.035156
0.0058594
-0.058594
-0.10352
-0.083984
-0.080078
-0.09375
-0.099609
-0.074219
-0.089844
-0.083984
-0.089844
-0.054688
-0.070313
-0.058594
-0.029297
-0.025391
-0.080078
-0.058594
-0.048828
-0.058594
-0.054688
-0.070313
-0.080078
-0.10352
-0.09375
-0.10352
-0.099609
-0.089844
-0.080078
-0.074219
-0.09375
-0.099609
-0.0039063
-0.10938
-0.125
-0.089844
-0.09375
-0.074219
-0.074219
-0.074219
-0.064453
-0.044922
-0.025391
-0.019531
-0.0097656
0
0.0097656
0.11133
0.054688
-0.013672
-0.025391
0.0058594
0
0.0058594
0.0097656
-0.0039063
0
0.019531
0.041016
0.080078
0.125
0.13086
0.089844
0.14063
0.12109
0.14063
0.080078
0.015625
-0.0039063
-0.029297
-0.0097656
0
-0.074219
-0.070313
-0.0097656
0.041016
0.13086
-0.064453
-0.34961
-0.49805
-0.49805
-0.49805
-0.39453
-0.30859
-0.16016
-0.080078
-0.048828
-0.058594
-0.054688
-0.039063
-0.048828
0
-0.048828
-0.044922
-0.0097656
-0.058594
-0.064453
-0.039063
-0.048828
-0.025391
-0.0097656
0
0.019531
0
0.015625
-0.029297
0.019531
-0.025391
0
-0.029297
-0.039063
-0.044922
-0.064453
-0.074219
-0.054688
-0.089844
-0.048828
-0.029297
-0.054688
-0.11523
-0.083984
-0.048828
-0.080078
-0.080078
-0.074219
-0.058594
-0.035156
-0.0039063
-0.048828
-0.054688
-0.013672
-0.025391
0.019531
0.035156
-0.039063
0
-0.0039063
0.050781
-0.019531
-0.035156
-0.054688
-0.058594
-0.048828
-0.039063
-0.029297
-0.013672
0
0.060547
-0.0039063
0.060547
0.050781
0.070313
0.054688
0.080078
0.03125
-0.0097656
-0.044922
-0.083984
-0.025391
-0.080078
-0.070313
-0.125
-0.064453
0.025391
0.085938
-0.058594
-0.33398
-0.49805
-0.49805
-0.49805
-0.48438
-0.34375
-0.14844
-0.064453
-0.035156
-0.080078
-0.09375
-0.083984
-0.058594
-0.054688
-0.035156
-0.013672
-0.029297
0.03125
-0.048828
-0.048828
-0.039063
-0.029297
-0.0097656
-0.048828
-0.0039063
0.019531
0.025391
0.035156
-0.025391
0.0058594
-0.0039063
-0.013672
-0.0039063
-0.039063
-0.054688
-0.048828
-0.074219
-0.035156
-0.080078
-0.058594
-0.025391
-0.083984
-0.064453
-0.089844
-0.09375
-0.070313
-0.089844
-0.070313
-0.013672
-0.048828
-0.048828
0.0058594
-0.019531
-0.025391
-0.013672
0.0097656
0.0097656
0.019531
0.0097656
-0.0097656
0.0058594
-0.0097656
0.0058594
0.044922
-0.0039063
0.015625
-0.0097656
0.0097656
0
0.041016
0.070313
0.035156
0.064453
0.089844
0.099609
0.070313
0.025391
0.019531
-0.0097656
0.035156
-0.025391
-0.070313
-0.074219
-0.054688
0.025391
0.070313
0.10547
-0.13477
-0.38477
-0.47461
-0.49805
-0.49805
-0.43359
-0.23438
-0.10352
-0.074219
-0.080078
-0.029297
-0.025391
0.0058594
-0.013672
0.0058594
-0.044922
-0.048828
-0.029297
-0.029297
0.019531
-0.09375
-0.083984
-0.074219
-0.080078
-0.048828
-0.025391
0
-0.035156
-0.025391
-0.029297
0.0058594
-0.039063
-0.044922
-0.019531
-0.0097656
-0.080078
-0.064453
-0.083984
-0.089844
-0.09375
-0.083984
-0.070313
-0.11914
-0.089844
-0.080078
-0.064453
-0.083984
-0.048828
-0.083984
-0.025391
-0.054688
-0.058594
-0.044922
-0.029297
-0.019531
-0.025391
-0.0097656
-0.025391
-0.019531
-0.025391
0.044922
0.070313
-0.019531
-0.044922
-0.025391
-0.039063
-0.048828
0.035156
-0.019531
-0.0039063
0.019531
0.041016
0.070313
0.085938
0.089844
0.099609
0.064453
0.080078
-0.025391
0.019531
-0.083984
-0.10352
-0.10352
-0.083984
-0.013672
0.044922
0.095703
0.0097656
-0.25391
-0.48438
-0.49805
-0.49805
-0.45898
-0.35938
-0.1543
-0.089844
-0.064453
-0.044922
-0.035156
-0.039063
-0.025391
0.015625
-0.044922
-0.025391
-0.019531
-0.025391
0.035156
-0.035156
-0.025391
-0.019531
-0.0039063
-0.0097656
0.0097656
0
0.054688
-0.013672
-0.019531
0
0.0058594
0.054688
0
-0.0039063
-0.025391
-0.019531
-0.025391
0
0.0058594
0.035156
-0.013672
-0.025391
