0.86946
0.87931
0.88916
0.89901
0.90394
0.91379
0.91872
0.93596
0.94089
0.95567
0.97537
0.99507
1.0197
1.0345
1.0493
1.0591
1.064
1.0542
1.0443
1.0197
0.99015
0.95567
0.91872
0.87931
0.83498
0.80542
0.77586
0.74877
0.72906
0.72414
0.71921
0.71429
0.71921
0.71921
0.71921
0.72414
0.72414
0.72906
0.72906
0.72414
0.71921
0.71921
0.71429
0.70936
0.70443
0.69951
0.69458
0.69458
0.68966
0.68473
0.68473
0.68473
0.68473
0.68473
0.68473
0.68473
0.68473
0.68473
0.68473
0.68473
0.68473
0.68966
0.68966
0.70443
0.73399
0.76108
0.77586
0.79064
0.79557
0.76601
0.72414
0.70443
0.70443
0.70443
0.70443
0.69458
0.67488
0.66502
0.6601
0.66502
0.66995
0.67488
0.67488
0.6798
0.6798
0.68473
0.69951
0.77586
0.99015
1.2291
1.266
0.83498
0.34975
0.024631
-0.068966
-0.019704
0.12562
0.27586
0.38424
0.45567
0.53941
0.65517
0.76108
0.82512
0.84975
0.86453
0.87438
0.88916
0.89409
0.89901
0.90887
0.91872
0.93103
0.94089
0.95567
0.97537
0.99507
1.0197
1.0394
1.0591
1.069
1.0739
1.0739
1.064
1.0443
1.0197
0.98522
0.95074
0.90887
0.86946
0.83005
0.80049
0.77094
0.74877
0.73399
0.72414
0.72414
0.72414
0.72414
0.72414
0.72906
0.73399
0.73892
0.73892
0.73892
0.73892
0.73892
0.72906
0.72414
0.71921
0.71429
0.71429
0.70936
0.70443
0.69951
0.69951
0.70443
0.70443
0.70443
0.70443
0.70936
0.70443
0.70443
0.70443
0.70936
0.70936
0.70936
0.70443
0.70936
0.71429
0.72906
0.76108
0.78079
0.80049
0.81034
0.81527
0.77586
0.73892
0.72414
0.72414
0.72414
0.72906
0.70936
0.69458
0.68966
0.68473
0.68966
0.69458
0.69458
0.69951
0.70443
0.70936
0.71429
0.73399
0.84483
1.0911
1.2808
1.1453
0.69458
0.23399
-0.0098522
-0.044335
0.044335
0.19458
0.33005
0.42611
0.49015
0.57882
0.69951
0.80049
0.85468
0.87438
0.89409
0.89901
0.90887
0.91872
0.93103
0.94089
0.95074
0.96059
0.97537
0.99015
1.0099
1.0296
1.0493
1.069
1.0837
1.0961
1.101
1.0961
1.0788
1.0493
1.0246
0.98522
0.95074
0.90887
0.86946
0.83005
0.80049
0.77586
0.76108
0.74384
0.73399
0.72906
0.72906
0.72906
0.73892
0.74384
0.74384
0.74384
0.74384
0.74384
0.73892
0.73892
0.72906
0.72414
0.71921
0.71429
0.70936
0.70443
0.70443
0.69951
0.69951
0.69458
0.69458
0.69458
0.69458
0.68966
0.68966
0.68966
0.68966
0.68966
0.69458
0.69458
0.69951
0.71921
0.74384
0.76601
0.78571
0.80049
0.79064
0.75616
0.71921
0.70936
0.70936
0.71429
0.70443
0.68966
0.67488
0.67488
0.67488
0.6798
0.6798
0.68473
0.68473
0.68966
0.69458
0.69458
0.72414
0.8399
1.1059
1.2808
1.1108
0.65517
0.19458
-0.039409
-0.073892
0.024631
0.18966
0.32512
0.42118
0.49015
0.59113
0.70936
0.80049
0.84483
0.86453
0.87438
0.88916
0.89409
0.90394
0.91379
0.91872
0.93596
0.94581
0.95567
0.97537
0.99507
1.0148
1.0394
1.0591
1.0739
1.0837
1.0961
1.0837
1.069
1.0443
1.0197
0.9803
0.94581
0.89901
0.85961
0.82512
0.79064
0.77094
0.74877
0.73892
0.72906
0.72906
0.72906
0.72906
0.72906
0.73399
0.73892
0.74384
0.73892
0.73892
0.73399
0.72906
0.71921
0.71429
0.71429
0.70443
0.69951
0.69951
0.69458
0.69458
0.69458
0.69458
0.69458
0.68966
0.68966
0.68966
0.69458
0.69458
0.69458
0.69458
0.69458
0.69951
0.69951
0.69951
0.70936
0.73399
0.76108
0.78079
0.80049
0.80542
0.78079
0.73892
0.71921
0.71429
0.71429
0.71429
0.70443
0.68966
0.6798
0.67488
0.6798
0.68473
0.68966
0.68966
0.68966
0.69458
0.69951
0.70936
0.79557
1.0197
1.2438
1.2537
0.80049
0.33498
0.039409
-0.039409
0.014778
0.1601
0.30542
0.39901
0.46552
0.54926
0.6601
0.76601
0.83005
0.84975
0.86453
0.87931
0.88916
0.89409
0.90394
0.91379
0.91872
0.93596
0.94581
0.96552
0.9803
1
1.0197
1.0394
1.0591
1.0739
1.0788
1.0739
1.064
1.0443
1.0197
0.98522
0.94581
0.90887
0.86946
0.83005
0.80049
0.77094
0.74877
0.73892
0.72906
0.71921
0.71921
0.71921
0.71921
0.72906
0.73892
0.73892
0.74384
0.74384
0.73892
0.73892
0.73892
0.72906
0.72906
0.72414
0.71921
0.71429
0.71429
0.70936
0.70443
0.70443
0.70443
0.70936
0.70936
0.70936
0.70936
0.70936
0.70936
0.70936
0.71429
0.71429
0.71429
0.71429
0.71921
0.73892
0.76601
0.78571
0.79557
0.81034
0.81527
0.78079
0.73892
0.71921
0.71921
0.71921
0.71429
0.69951
0.6798
0.67488
0.67488
0.67488
0.6798
0.6798
0.6798
0.68473
0.68966
0.69458
0.71921
0.83005
1.0911
1.2906
1.1552
0.69951
0.21429
-0.039409
-0.073892
0.014778
0.17488
0.31527
0.40394
0.4803
0.57389
0.69458
0.79064
0.8399
0.85961
0.86946
0.87931
0.88916
0.89901
0.90394
0.91872
0.93103
0.94089
0.95567
0.97537
0.99015
1.0099
1.0296
1.0493
1.069
1.0788
1.0911
1.0788
1.064
1.0394
1.0099
0.97537
0.93596
0.89409
0.84975
0.81527
0.78079
0.75616
0.73892
0.72906
0.71921
0.71921
0.71921
0.72414
0.72906
0.72906
0.73892
0.73892
0.73892
0.73892
0.73399
0.72906
0.72906
0.72414
0.71921
0.71429
0.70443
0.70443
0.70443
0.69951
0.69951
0.69951
0.69458
0.69458
0.69458
0.69458
0.69458
0.69458
0.69951
0.69951
0.69458
0.69458
0.69458
0.69951
0.71921
0.74384
0.76601
0.78571
0.80049
0.79064
0.75616
0.71921
0.70443
0.69951
0.69951
0.69458
0.6798
0.66502
0.6601
0.66502
0.66995
0.67488
0.67488
0.6798
0.6798
0.68473
0.69458
0.73399
0.88424
1.1502
1.2537
1.0197
0.54433
0.12562
-0.049261
-0.059113
0.068966
0.22906
0.35468
0.43596
0.50985
0.61084
0.72414
0.80542
0.84483
0.85961
0.86946
0.87931
0.88424
0.89409
0.89901
0.90394
0.91872
0.93596
0.94581
0.96552
0.99015
1.0099
1.0296
1.0493
1.069
1.0788
1.0837
1.0788
1.0591
1.0345
1.0049
0.96552
0.92611
0.88424
0.84483
0.81034
0.78079
0.75616
0.73892
0.72906
0.72414
0.72414
0.71921
0.71921
0.72414
0.72906
0.72906
0.73399
0.73399
0.73399
0.72906
0.72414
0.71921
0.71429
0.71429
0.70443
0.69951
0.69951
0.69951
0.69951
0.69458
0.69458
0.69458
0.69951
0.69951
0.69951
0.69951
0.69951
0.69951
0.69951
0.69951
0.70443
0.70443
0.70443
0.71921
0.73892
0.76601
0.78079
0.80049
0.80542
0.78079
0.73892
0.71429
0.70936
0.71429
0.70936
0.69951
0.68473
0.67488
0.67488
0.67488
0.67488
0.6798
0.68473
0.68473
0.69458
0.69951
0.70936
0.78571
1
1.2291
1.2537
0.81034
0.33498
0.029557
-0.049261
0.0049261
0.15025
0.29557
0.39409
0.46059
0.53941
0.64532
0.74877
0.8202
0.84483
0.85961
0.86946
0.87931
0.88916
0.89901
0.90394
0.91379
0.91872
0.93596
0.94581
0.97044
0.99507
1.0148
1.0394
1.0591
1.069
1.0739
1.0788
1.069
1.0443
1.0099
0.97537
0.94089
0.89901
0.86453
0.82512
0.78571
0.76108
0.73892
0.72414
0.71921
0.71429
0.71429
0.71429
0.71921
0.71921
0.72906
0.73399
0.73892
0.73892
0.74384
0.74384
0.73892
0.73399
0.72906
0.72414
0.71921
0.71921
0.71429
0.71429
0.71429
0.70936
0.70443
0.70443
0.70443
0.70443
0.70443
0.70936
0.70936
0.70443
0.70443
0.70936
0.70936
0.70936
0.71921
0.74384
0.77094
0.78571
0.80542
0.81527
0.79557
0.76108
0.72414
0.71429
0.71429
0.71429
0.70443
0.68966
0.6798
0.67488
0.6798
0.68473
0.68473
0.68473
0.68473
0.68966
0.69458
0.69951
0.76108
0.96059
1.234
1.3005
0.94089
0.42611
0.039409
-0.083744
-0.049261
0.091133
0.25123
0.35961
0.43596
0.52463
0.64039
0.74877
0.81527
0.84483
0.85961
0.87438
0.88424
0.89409
0.89901
0.90887
0.91872
0.93103
0.94089
0.96059
0.9803
1
1.0246
1.0443
1.064
1.0788
1.0911
1.0911
1.0739
1.0591
1.0246
0.99507
0.95567
0.90887
0.86453
0.82512
0.79064
0.76108
0.73892
0.72414
0.71921
0.71429
0.71429
0.71429
0.71921
0.71921
0.72414
0.72906
0.72906
0.72906
0.72906
0.72906
0.72414
0.71921
0.71921
0.71429
0.70443
0.70443
0.69951
0.69458
0.69458
0.68966
0.68966
0.68966
0.68966
0.69458
0.69458
0.69458
0.69458
0.69458
0.68966
0.68966
0.69458
0.69951
0.70443
0.72414
0.75616
0.77094
0.79064
0.80049
0.78079
0.74384
0.71429
0.70443
0.70443
0.70443
0.69951
0.6798
0.66995
0.66995
0.67488
0.6798
0.6798
0.68473
0.68966
0.68966
0.69458
0.69951
0.76601
0.95567
1.2094
1.266
0.88424
0.39901
0.054187
-0.049261
-0.0098522
0.13054
0.28079
0.38916
0.46059
0.53448
0.64039
0.74384
0.8202
0.84975
0.86453
0.87438
0.88916
0.89409
0.89901
0.90887
0.91872
0.92611
0.94089
0.95567
0.97537
1
1.0197
1.0394
1.0591
1.0739
1.0788
1.0788
1.069
1.0443
1.0197
0.98522
0.94581
0.90394
0.86453
0.82512
0.79064
0.76108
0.73892
0.72414
0.71921
0.71921
0.71921
0.72414
0.72414
0.72906
0.72906
0.73399
0.73892
0.74384
0.74384
0.74384
0.73892
0.73399
0.72906
0.72414
0.71921
0.71429
0.71429
0.70936
0.70443
0.70443
0.70443
0.70443
0.70936
0.70936
0.70936
0.70936
0.70936
0.70936
0.71429
0.71429
0.71429
0.70936
0.71429
0.72414
0.75616
0.78079
0.79557
0.81034
0.81527
0.78571
0.74384
0.72414
0.72414
0.72414
0.72414
0.71429
0.69951
0.69458
0.69458
0.69458
0.69951
0.70443
0.70936
0.70936
0.71429
0.71429
0.73399
0.83005
1.069
1.2906
1.1897
0.76108
0.28079
0.0049261
-0.049261
0.019704
0.17488
0.3202
0.42118
0.4803
0.56897
0.68473
0.79064
0.84975
0.86946
0.88916
0.89901
0.90394
0.91379
0.92611
0.93596
0.94581
0.95567
0.97044
0.98522
1
1.0246
1.0443
1.069
1.0911
1.101
1.1108
1.101
1.0837
1.0542
1.0246
0.98522
0.94581
0.89901
0.85468
0.8202
0.78571
0.76108
0.74384
0.72906
0.72414
0.71921
0.71921
0.71921
0.71921
0.72414
0.72906
0.72906
0.73399
0.73892
0.73892
0.73892
0.73399
0.72906
0.72906
0.71921
0.71429
0.70936
0.70936
0.70443
0.70443
0.70443
0.69951
0.69951
0.69951
0.69951
0.69951
0.69951
0.69951
0.69951
0.69951
0.69951
0.70443
0.71429
0.73892
0.76601
0.78571
0.80542
0.81034
0.79064
0.74877
0.71921
0.71429
0.71429
0.71429
0.70443
0.68473
0.67488
0.67488
0.67488
0.6798
0.68473
0.68966
0.68966
0.69458
0.69458
0.70936
0.77586
0.9803
1.2389
1.2906
0.89901
0.38916
0.024631
-0.083744
-0.039409
0.11084
0.27094
0.38424
0.45567
0.53941
0.65517
0.76108
0.83005
0.85468
0.86946
0.87931
0.88916
0.89409
0.90394
0.91379
0.91872
0.93596
0.94581
0.96552
0.98522
1.0049
1.0296
1.0542
1.0739
1.0911
1.0961
1.101
1.0837
1.064
1.0345
1
0.96059
0.90887
0.86453
0.82512
0.79064
0.76601
0.73892
0.72414
0.71921
0.71429
0.71429
0.71429
0.71429
0.71921
0.72414
0.72414
0.72906
0.73399
0.73399
0.72906
0.72906
0.72414
0.71921
0.71429
0.70936
0.70443
0.69951
0.69951
0.69458
0.69458
0.68966
0.69458
0.69458
0.69458
0.69458
0.69458
0.69458
0.69458
0.69458
0.69458
0.69458
0.69951
0.69951
0.71429
0.73892
0.76108
0.77586
0.79557
0.80049
0.77586
0.73399
0.70936
0.70443
0.70443
0.71429
0.70443
0.68473
0.67488
0.67488
0.67488
0.6798
0.6798
0.68473
0.68473
0.68473
0.69458
0.71429
0.80542
1.0394
1.2537
1.2611
0.76108
0.29064
0.0049261
-0.059113
0.0098522
0.16502
0.31527
0.40887
0.47537
0.55419
0.66502
0.76601
0.82512
0.84483
0.85961
0.86946
0.87438
0.87931
0.88916
0.89409
0.90394
0.91872
0.93596
0.95074
0.97044
0.99015
1.0099
1.0394
1.0591
1.069
1.0739
1.0739
1.064
1.0394
1.0099
0.97537
0.94089
0.89901
0.85468
0.81527
0.78079
0.75616
0.73399
0.72414
0.71921
0.71429
0.70936
0.70936
0.71429
0.71921
0.72414
0.72906
0.73399
0.73399
0.73399
0.73399
0.72906
0.72414
0.72414
0.71921
0.71429
0.70936
0.70443
0.70443
0.69951
0.69951
0.70443
0.70443
0.69951
0.69951
0.69951
0.69951
0.69951
0.69951
0.70443
0.70443
0.70443
0.70443
0.70936
0.71921
0.73892
0.77094
0.78571
0.80542
0.8202
0.80542
0.77094
0.73399
0.71921
0.71921
0.72414
0.71921
0.69951
0.68473
0.6798
0.6798
0.68473
0.68966
0.69458
0.69458
0.69458
0.69458
0.69951
0.73399
0.88424
1.165
1.2906
1.0443
0.54926
0.11084
-0.073892
-0.091133
0.049261
0.21429
0.3399
0.42611
0.49507
0.60099
0.71429
0.79557
0.83498
0.85468
0.86946
0.87438
0.88424
0.89409
0.89901
0.90887
0.91872
0.93596
0.94581
0.96552
0.98522
1.0099
1.0296
1.0493
1.064
1.0739
1.0788
1.069
1.0542
1.0246
0.99507
0.95567
0.91379
0.87438
0.83498
0.80049
0.76601
0.74384
0.72906
0.72414
0.71921
0.71429
0.71429
0.71429
0.71921
0.72414
0.72906
0.72906
0.73892
0.73892
0.73399
0.72906
0.72906
0.72414
0.71429
0.71429
0.70443
0.70443
0.69951
0.69458
0.69458
0.69458
0.69458
0.69458
0.69458
0.69458
0.69458
0.69458
0.69951
0.69951
0.69951
0.69951
0.69951
0.70936
0.72906
0.75616
0.77586
0.80049
0.81034
0.79064
0.75616
0.71921
0.71429
0.70936
0.70936
0.70443
0.68966
0.67488
0.66995
0.67488
0.6798
0.6798
0.68473
0.68473
0.69458
0.69458
0.69951
0.75616
0.93596
1.1995
1.2709
0.95074
0.46059
0.068966
-0.068966
-0.073892
0.091133
0.25123
0.36453
0.44581
0.5197
0.63054
0.73892
0.81527
0.84483
0.86453
0.87438
0.88424
0.88916
0.89901
0.90394
0.91872
0.93103
0.94089
0.95567
0.97537
1
1.0197
1.0443
1.064
1.0739
1.0911
1.0911
1.0788
1.0591
1.0296
1
0.96059
0.91872
0.87438
0.83005
0.80049
0.76601
0.74384
0.72906
0.72414
0.71921
0.71921
0.71921
0.72414
0.72414
0.72906
0.73892
0.73892
0.74384
0.74384
0.74877
0.74384
0.73892
0.73399
0.72906
0.72414
0.71921
0.71429
0.71429
0.71429
0.71429
0.71429
0.71429
0.71429
0.71429
0.71921
0.71921
0.71921
0.71921
0.71921
0.71921
0.71921
0.71921
0.71921
0.72414
0.73892
0.77094
0.78571
0.80049
0.8202
0.82512
0.79064
0.75616
0.73399
0.72906
0.72906
0.72906
0.71429
0.69951
0.69458
0.69458
0.69458
0.69458
0.69951
0.69951
0.69951
0.70443
0.71429
0.73399
0.8399
1.0911
1.2906
1.165
0.72906
0.25616
-0.0098522
-0.059113
0.019704
0.17488
0.3202
0.41379
0.4803
0.56897
0.6798
0.79064
0.84483
0.86946
0.88424
0.89409
0.89901
0.90394
0.91379
0.92611
0.93596
0.94581
0.96059
0.97537
0.99507
1.0099
1.0345
1.0591
1.0739
1.0837
1.0911
1.0837
1.069
1.0443
1.0197
0.98522
0.94581
0.89901
0.85961
0.8202
0.78571
0.75616
0.73892
0.72414
0.71921
0.71921
0.71921
0.71921
0.72414
0.72906
0.73399
0.73892
0.73892
0.74384
0.74384
0.74384
0.73892
0.72906
0.72414
0.71921
0.71921
0.71921
0.71429
0.71429
0.70443
0.70443
0.70443
0.70443
0.70443
0.70443
0.70443
0.70936
0.70936
0.70936
0.71429
0.71429
0.71429
0.71921
0.73399
0.76108
0.78079
0.80049
0.81527
0.80542
0.77586
0.73399
0.72414
0.72414
0.72414
0.71921
0.70443
0.68966
0.6798
0.6798
0.68473
0.68966
0.68966
0.69458
0.69951
0.70443
0.70936
0.74384
0.88424
1.1601
1.3005
1.0739
0.59113
0.13547
-0.068966
-0.096059
0.039409
0.20936
0.34483
0.43103
0.50493
0.60591
0.72414
0.81034
0.84975
0.86946
0.87931
0.88916
0.89901
0.90394
0.91379
0.91872
0.93596
0.94581
0.96059
0.97537
1
1.0197
1.0443
1.069
1.0837
1.0961
1.101
1.0911
1.0739
1.0493
1.0197
0.9803
0.94089
0.89409
0.84975
0.81034
0.78079
0.75616
0.73892
0.72906
0.71921
0.71921
0.71921
0.72414
0.72414
0.72906
0.73892
0.74384
0.74384
0.74384
0.73892
0.73892
0.72906
0.72414
0.71921
0.71429
0.71429
0.70443
0.70443
0.69951
0.69951
0.69951
0.69951
0.69951
0.69951
0.69951
0.69951
0.69951
0.70443
0.70936
0.72906
0.76108
0.77586
0.78571
0.80542
0.81034
0.76108
0.70936
0.68966
0.69458
0.70443
0.70936
0.69951
0.68473
0.67488
0.67488
0.67488
0.6798
0.68473
0.68966
0.69458
0.69458
0.69458
0.70936
0.75616
0.91379
1.1798
1.2611
0.98522
0.49507
0.10099
-0.049261
-0.054187
0.091133
0.25123
0.37438
0.45567
0.52463
0.62069
0.73399
0.81527
0.84975
0.86946
0.87931
0.89409
0.89901
0.90394
0.91379
0.92611
0.93596
0.95074
0.96059
0.98522
1.0049
1.0296
1.0542
1.0739
1.0911
1.101
1.101
1.0911
1.0739
1.0493
1.0148
0.97537
0.93103
0.88424
0.84483
0.81034
0.78079
0.76108
0.74384
0.73399
0.72906
0.72414
0.71921
0.71921
0.72414
0.73892
0.74384
0.74877
0.74877
0.74877
0.74384
0.73892
0.73892
0.72906
0.72414
0.71921
0.71429
0.71429
0.71429
0.71429
0.71429
0.70936
0.70936
0.70936
0.70443
0.70443
0.70936
0.70936
0.70936
0.70936
0.70936
0.71429
0.71429
0.71429
0.71429
0.71429
0.71429
0.71429
0.71429
0.71921
0.73892
0.76601
0.78571
0.80542
0.82512
0.81527
0.78079
0.73892
0.72414
0.72414
0.72906
0.72414
0.70443
0.68473
0.67488
0.67488
0.67488
0.6798
0.68473
0.68473
0.69458
0.69458
0.69951
0.72414
0.84975
1.1256
1.3103
1.1453
0.67488
0.18966
-0.054187
-0.091133
0.019704
0.18473
0.3202
0.40394
0.4803
0.57389
0.68966
0.78079
0.82512
0.84483
0.85961
0.86946
0.87931
0.88916
0.89409
0.90394
0.91379
0.92611
0.94089
0.96059
0.9803
1
1.0197
1.0394
1.0542
1.069
1.0739
1.0739
1.0542
1.0296
1
0.96552
0.93103
0.88916
0.84483
0.81034
0.77586
0.75616
0.73399
0.71921
0.71429
0.71429
0.71429
0.71429
0.71921
0.71921
0.72414
0.72906
0.73399
0.73892
0.73399
0.72906
0.72906
0.71921
0.71429
0.70936
0.70443
0.69951
0.69951
0.69458
0.69458
0.69458
0.69458
0.69458
0.69458
0.69458
0.69458
0.69458
0.69458
0.69458
0.69951
0.69951
0.69951
0.69951
0.69951
0.69951
0.70936
0.73399
0.76108
0.78079
0.79557
0.80542
0.79064
0.75616
0.71921
0.71429
0.71429
0.71429
0.70443
0.68966
0.67488
0.66995
0.66995
0.67488
0.6798
0.6798
0.6798
0.68473
0.68473
0.69458
0.73892
0.91379
1.1847
1.2611
0.95567
0.47537
0.086207
-0.059113
-0.068966
0.091133
0.24384
0.36453
0.44089
0.51478
0.61576
0.72414
0.80049
0.83498
0.85468
0.85961
0.86946
0.87438
0.88424
0.89409
0.90394
0.91379
0.92611
0.94089
0.96059
0.9803
1
1.0197
1.0394
1.0493
1.064
1.064
1.0542
1.0394
1.0148
0.98522
0.95567
0.91379
0.87438
0.83005
0.79557
0.76601
0.74384
0.72906
0.72414
0.71921
0.71921
0.71921
0.71921
0.71921
0.72414
0.72906
0.73892
0.73892
0.73892
0.73892
0.72906
0.72414
0.71921
0.71921
0.71429
0.70443
0.69951
0.69951
0.69951
0.69458
0.69458
0.69951
0.69951
0.70443
0.69951
0.69951
0.70443
0.70443
0.70443
0.70443
0.70443
0.70443
0.70936
0.70936
0.71429
0.71921
0.73892
0.76108
0.78079
0.80049
0.81034
0.79557
0.76108
0.73399
0.72414
0.72414
0.72414
0.71921
0.69951
0.68473
0.6798
0.6798
0.68473
0.68966
0.68966
0.68966
0.69458
0.69458
0.70443
0.75616
0.91379
1.1847
1.2759
0.99507
0.5
0.096059
-0.068966
-0.073892
0.073892
0.23399
0.35468
0.43103
0.50493
0.61084
0.72414
0.80542
0.8399
0.85468
0.86946
0.87931
0.88424
0.89409
0.89901
0.90887
0.91872
0.93596
0.95074
0.97044
0.99015
1.0099
1.0296
1.0443
1.064
1.0739
1.0788
1.069
1.0493
1.0246
1
0.96059
0.91872
0.87931
0.84483
0.81034
0.78079
0.76108
0.74384
0.72906
0.72414
0.72414
0.72414
0.72414
0.72906
0.72906
0.73892
0.74384
0.74384
0.74384
0.74384
0.73892
0.72906
0.72414
0.71921
0.71429
0.71429
0.70936
0.70443
0.69951
0.69951
0.69951
0.69951
0.69951
0.69951
0.69951
0.69951
0.70443
0.70443
0.70443
0.69951
0.69951
0.70443
0.70443
0.71921
0.74384
0.77094
0.78571
0.80542
0.81034
0.78079
0.73892
0.71921
0.71429
0.71429
0.71429
0.69951
0.68473
0.67488
0.67488
0.67488
0.6798
0.6798
0.68473
0.68473
0.68473
0.69458
0.70936
0.80049
1.0345
1.266
1.2709
0.79064
0.30542
-0.0049261
-0.073892
-0.0049261
0.15025
0.30049
0.39901
0.47044
0.55911
0.67488
0.77586
0.83498
0.86453
0.87931
0.88916
0.89409
0.89901
0.90394
0.91379
0.92611
0.93596
0.94581
0.96059
0.9803
1.0049
1.0296
1.0493
1.064
1.0788
1.0911
1.0837
1.0739
1.0493
1.0246
0.99015
0.95567
0.90887
0.86946
0.83005
0.79557
0.77094
0.74877
0.73892
0.72906
0.72414
0.71921
0.72414
0.72414
0.72906
0.73399
0.73892
0.73892
0.73892
0.73399
0.72906
0.72906
0.72414
0.71921
0.71429
0.71429
0.70936
0.70443
0.70443
0.70443
0.70443
0.70443
0.70443
0.70443
0.70443
0.70443
0.70443
0.70936
0.70936
0.70936
0.71429
0.71429
0.71429
0.71429
0.71429
0.71921
0.73892
0.76601
0.79064
0.80542
0.82512
0.81527
0.78079
0.74384
0.72906
0.72906
0.72906
0.72414
0.70936
0.69458
0.68473
0.68473
0.68473
0.69458
0.69458
0.69458
0.69951
0.69951
0.70443
0.73892
0.87931
1.1404
1.266
1.0542
0.59606
0.16995
-0.029557
-0.049261
0.064039
0.22414
0.34975
0.43103
0.5
0.59606
0.70936
0.80542
0.84975
0.86453
0.88424
0.89409
0.90394
0.91379
0.91872
0.93103
0.94089
0.95567
0.97044
0.98522
1.0049
1.0246
1.0493
1.069
1.0911
1.101
1.1059
1.101
1.0788
1.0542
1.0246
0.99015
0.95567
0.90887
0.86946
0.83005
0.80049
0.77094
0.74877
0.73892
0.73399
0.73399
0.73399
0.73399
0.73892
0.74384
0.74384
0.74877
0.74877
0.74877
0.74384
0.73892
0.73399
0.72906
0.72414
0.72414
0.71921
0.71429
0.70443
0.70443
0.70443
0.69951
0.69458
0.69458
0.69458
0.69951
0.69951
0.69951
0.70443
0.70443
0.70443
0.70443
0.70936
0.70936
0.70936
0.71921
0.74384
0.77586
0.79064
0.81034
0.81034
0.78571
0.74384
0.71921
0.71429
0.71429
0.71429
0.69951
0.6798
0.67488
0.67488
0.67488
0.67488
0.6798
0.68473
0.68473
0.68966
0.69458
0.70936
0.80542
1.0443
1.2808
1.2857
0.76601
0.26108
-0.034483
-0.096059
-0.014778
0.14532
0.29557
0.38916
0.46552
0.55911
0.67488
0.77586
0.83498
0.85468
0.86946
0.87931
0.88916
0.89409
0.90394
0.90887
0.91872
0.93596
0.94581
0.96552
0.9803
1.0049
1.0246
1.0443
1.064
1.0739
1.0788
1.0788
1.069
1.0443
1.0197
0.98522
0.94581
0.90394
0.86453
0.82512
0.79064
0.76108
0.73892
0.72906
0.72414
0.71921
0.71429
0.71921
0.72414
0.72414
0.72906
0.72906
0.72906
0.72906
0.72906
0.72414
0.71921
0.71921
0.70936
0.69951
0.69951
0.69458
0.69458
0.69458
0.68966
0.68966
0.68473
0.68473
0.68966
0.68966
0.68966
0.68966
0.68966
0.69458
0.69458
0.69951
0.69458
0.69951
0.69951
0.69951
0.70443
0.72414
0.75616
0.77094
0.79064
0.80049
0.78079
0.74384
0.71429
0.70443
0.70443
0.70443
0.69951
0.68473
0.67488
0.67488
0.67488
0.67488
0.6798
0.68473
0.68473
0.68966
0.69458
0.69951
0.76108
0.94581
1.1995
1.2611
0.89409
0.41379
0.059113
-0.044335
-0.0049261
0.12562
0.27586
0.38916
0.46059
0.53448
0.64039
0.74877
0.82512
0.85468
0.87438
0.87931
0.88916
0.89901
0.90394
0.91872
0.93103
0.94089
0.95074
0.96059
0.97537
0.99507
1.0148
1.0345
1.0542
1.069
1.0788
1.0788
1.0788
1.064
1.0345
1.0049
0.96552
0.93103
0.88916
0.84975
0.81527
0.79064
0.76601
0.74384
0.73892
0.73399
0.72906
0.72906
0.73399
0.73892
0.73892
0.74384
0.74877
0.75616
0.75616
0.75616
0.74877
0.73892
0.73399
0.72906
0.72414
0.71921
0.71429
0.71429
0.71429
0.71429
0.71429
0.70936
0.70936
0.70443
0.70443
0.70443
0.70443
0.70936
0.70936
0.70936
0.70936
0.71429
0.71429
0.71429
0.71429
0.72414
0.74877
0.77586
0.79064
0.81034
0.8202
0.80049
0.76108
0.72906
0.71921
0.71921
0.71921
0.70443
0.68966
0.6798
0.67488
0.67488
0.67488
0.67488
0.6798
0.6798
0.68473
0.68473
0.69458
0.73892
0.92611
1.2044
1.2857
0.96059
0.44581
0.054187
-0.073892
-0.044335
0.091133
0.25123
0.36453
0.44089
0.5197
0.63054
0.73892
0.81527
0.84483
0.85468
0.86946
0.87438
0.88916
0.89901
0.90394
0.91872
0.93103
0.94089
0.95567
0.97537
0.99507
1.0148
1.0345
1.0542
1.069
1.0739
1.0739
1.069
1.0493
1.0246
0.99507
0.95567
0.91379
0.87931
0.84483
0.81034
0.78079
0.75616
0.73892
0.72906
0.72414
0.72414
0.72414
0.72414
0.72906
0.72906
0.72906
0.73399
0.73399
0.73399
0.72906
0.72414
0.71921
0.71429
0.71429
0.70443
0.69951
0.69951
0.69458
0.69458
0.69458
0.69458
0.69458
0.69458
0.69458
0.69458
0.69458
0.69951
0.69951
0.69951
0.69951
0.69951
0.69951
0.69951
0.69951
0.70936
0.72906
0.75616
0.77586
0.79064
0.80542
0.78079
0.73892
0.71429
0.70936
0.71429
0.71429
0.70443
0.68473
0.67488
0.66995
0.67488
0.6798
0.68473
0.68473
0.68966
0.69458
0.69458
0.70443
0.77586
0.98522
1.2291
1.2709
0.85468
0.36946
0.044335
-0.049261
0.0049261
0.14532
0.29557
0.39901
0.47044
0.54926
0.65517
0.75616
0.82512
0.84975
0.86946
0.87931
0.88916
0.89409
0.90394
0.91379
0.91872
0.93103
0.94089
0.95567
0.97537
0.99507
1.0099
1.0296
1.0493
1.064
1.069
1.069
1.064
1.0443
1.0197
0.99015
0.95567
0.91379
0.87438
0.83498
0.80542
0.78079
0.76108
0.73892
0.72906
0.72906
0.72906
0.72906
0.72906
0.73892
0.73892
0.74384
0.74877
0.74877
0.74877
0.74877
0.74384
0.73892
0.72906
0.72414
0.72414
0.71921
0.71429
0.71429
0.70443
0.70443
0.70443
0.70936
0.70443
0.70443
0.70936
0.71429
0.71429
0.71429
0.71921
0.71921
0.71921
0.71921
0.71921
0.71921
0.72414
0.73892
0.76601
0.78571
0.80542
0.8202
0.83005
0.80049
0.75616
0.72906
0.72414
0.72906
0.72906
0.71429
0.69458
0.68473
0.68473
0.68473
0.69458
0.69458
0.69951
0.69951
0.69951
0.69951
0.71429
0.80049
1.0394
1.2709
1.2906
0.80542
0.30542
-0.0049261
-0.068966
0
0.15517
0.30049
0.39901
0.47044
0.55911
0.66995
0.77586
0.83498
0.85468
0.86946
0.88424
0.89409
0.89901
0.90394
0.91379
0.91872
0.93596
0.94581
0.96059
0.97537
0.99507
1.0148
1.0296
1.0493
1.064
1.069
1.069
1.0591
1.0443
1.0099
0.9803
0.94581
0.90394
0.86453
0.83005
0.79557
0.77094
0.74877
0.73892
0.73399
0.72906
0.72906
0.72906
0.72906
0.73399
0.73892
0.73892
0.74384
0.73892
0.73892
0.72906
0.72906
0.72414
0.71921
0.71429
0.71429
0.70443
0.69951
0.69951
0.69458
0.69458
0.69458
0.69458
0.69458
0.69951
0.69458
0.69951
0.69951
0.69951
0.69951
0.70443
0.70443
0.70443
0.70936
0.72414
0.74877
0.77586
0.78571
0.80542
0.81034
0.78571
0.74384
0.72414
0.71921
0.71921
0.71921
0.70443
0.68966
0.6798
0.6798
0.6798
0.68473
0.68473
0.68966
0.69458
0.69458
0.69951
0.71429
0.80049
1.0345
1.266
1.2759
0.79064
0.31034
0.019704
-0.049261
0.014778
0.1601
0.30542
0.40887
0.47537
0.55911
0.66995
0.77586
0.83498
0.85961
0.87438
0.87931
0.88916
0.89409
0.89901
0.91379
0.92611
0.93596
0.94581
0.96059
0.97537
0.99507
1.0148
1.0345
1.0542
1.069
1.0739
1.0739
1.069
1.0493
1.0197
0.99015
0.96059
0.91872
0.87931
0.8399
0.80542
0.78079
0.76108
0.74384
0.73892
0.73399
0.73399
0.73399
0.73892
0.74384
0.74384
0.74877
0.74384
0.74877
0.74384
0.73892
0.73399
0.72414
0.71921
0.71429
0.71429
0.71429
0.70443
0.69951
0.69951
0.69951
0.69951
0.69951
0.69951
0.69951
0.69951
0.69951
0.70443
0.70443
0.70443
0.70443
0.70936
0.70936
0.70443
0.70443
0.71429
0.74384
0.77094
0.79064
0.81034
0.8202
0.80049
0.76601
0.72906
0.71921
0.71921
0.71921
0.71429
0.69458
0.6798
0.6798
0.68473
0.68473
0.68966
0.69458
0.69458
0.69458
0.69458
0.70443
0.76108
0.95074
1.2192
1.2906
0.93596
0.42118
0.049261
-0.073892
-0.039409
0.10099
0.26108
0.37438
0.44581
0.5197
0.63054
0.74384
0.8202
0.84975
0.86946
0.87931
0.88916
0.89409
0.90394
0.91379
0.91872
0.92611
0.94089
0.95567
0.97537
0.99507
1.0148
1.0345
1.0493
1.064
1.069
1.0739
1.069
1.0493
1.0246
0.99507
0.96059
0.91872
0.87931
0.83498
0.80049
0.77586
0.74877
0.73892
0.72414
0.71921
0.71429
0.71921
0.71921
0.72414
0.72906
0.72906
0.73399
0.73892
0.73892
0.73892
0.73399
0.72414
0.71921
0.71429
0.70936
0.70443
0.70443
0.69951
0.69458
0.69458
0.69458
0.69951
0.69951
0.69951
0.69951
0.69951
0.69951
0.69951
0.69951
0.69951
0.69951
0.70443
0.70443
0.72414
0.75616
0.77586
0.79557
0.81034
0.79557
0.76108
0.72414
0.71921
0.71429
0.71429
0.70936
0.69458
0.6798
0.67488
0.67488
0.68473
0.68966
0.69458
0.69458
0.69458
0.69951
0.70443
0.73892
0.88424
1.1601
1.2857
1.0443
0.55419
0.13054
-0.049261
-0.064039
0.064039
0.22906
0.35468
0.43596
0.50985
0.60591
0.72414
0.80542
0.84483
0.86453
0.87931
0.88916
0.89901
0.90394
0.90887
0.91872
0.93103
0.94089
0.96059
0.97537
0.99507
1.0148
1.0296
1.0493
1.069
1.0788
1.0837
1.0739
1.064
1.0394
1.0099
0.97537
0.93596
0.89409
0.84975
0.81527
0.78571
0.76108
0.74384
0.73399
0.72906
0.72414
0.72414
0.72414
0.72906
0.73399
0.73892
0.74384
0.74877
0.74877
0.74877
0.74384
0.73892
0.73399
0.72906
0.72414
0.71921
0.71921
0.71429
0.70936
0.70443
0.70936
0.70936
0.70936
0.70443
0.70443
0.70443
0.70443
0.70443
0.70443
0.70443
0.70443
0.70443
0.70936
0.71429
0.71429
0.73892
0.76601
0.78571
0.80049
0.81527
0.80542
0.77094
0.72906
0.71921
0.71921
0.72414
0.71921
0.70443
0.68966
0.68473
0.68473
0.68473
0.68966
0.68966
0.69458
0.69951
0.69951
0.70936
0.74384
0.88424
1.1502
1.2808
1.064
0.58621
0.15025
-0.034483
-0.054187
0.068966
0.22906
0.35468
0.43596
0.5
0.60099
0.71429
0.80542
0.84483
0.86453
0.87931
0.88916
0.89409
0.89901
0.90394
0.91379
0.92611
0.93596
0.95074
0.96552
0.9803
1.0049
1.0246
1.0443
1.0591
1.0739
1.0739
1.069
1.0542
1.0296
1
0.96552
0.93103
0.88916
0.84975
0.81527
0.78079
0.76108
0.73892
0.72906
0.72414
0.72414
0.72414
0.72414
0.72906
0.73399
0.73892
0.73892
0.74384
0.74384
0.74384
0.73892
0.73399
0.72906
0.71921
0.71429
0.71429
0.71429
0.70936
0.70443
0.69951
0.69951
0.69951
0.69951
0.69951
0.69951
0.70443
0.69951
0.69951
0.69951
0.69951
0.69951
0.69951
0.70936
0.73399
0.76108
0.77586
0.79064
0.80542
0.79064
0.76108
0.71921
0.71429
0.71429
0.71921
0.71429
0.69458
0.6798
0.6798
0.6798
0.68473
0.68473
0.68473
0.69458
0.69951
0.69951
0.70443
0.74384
0.89409
1.165
1.2759
1.0296
0.54433
0.12562
-0.049261
-0.059113
0.073892
0.23892
0.35961
0.44089
0.51478
0.61576
0.72414
0.80542
0.84483
0.86453
0.87438
0.88916
0.89409
0.89901
0.90394
0.91379
0.92611
0.94089
0.95567
0.97044
0.99015
1.0099
1.0296
1.0542
1.0739
1.0788
1.0837
1.0788
1.064
1.0394
1.0099
0.9803
0.94089
0.89409
0.85468
0.8202
0.78571
0.76601
0.74384
0.73892
0.72906
0.72906
0.72906
0.72906
0.72906
0.72906
0.73892
0.73892
0.73892
0.74384
0.73892
0.73399
0.72906
0.72414
0.71921
0.71429
0.71429
0.70443
0.70443
0.70443
0.70443
0.69951
0.69951
0.69951
0.70443
0.69951
0.69951
0.69951
0.69951
0.70443
0.70443
0.70443
0.70936
0.70936
0.70936
0.71429
0.74384
0.77094
0.78571
0.80049
0.81527
0.79557
0.76108
0.72906
0.72414
0.72414
0.72414
0.71429
0.69458
0.6798
0.6798
0.68473
0.68473
0.68473
0.68966
0.68966
0.69458
0.69458
0.70443
0.77094
0.96552
1.2143
1.266
0.89409
0.42118
0.064039
-0.044335
-0.0098522
0.12562
0.27586
0.37931
0.45074
0.5197
0.62069
0.73399
0.81034
0.84483
0.85961
0.86946
0.87931
0.88916
0.89409
0.89901
0.90887
0.91872
0.93596
0.95074
0.96552
0.99015
1.0099
1.0345
1.0493
1.069
1.0788
1.0837
1.0739
1.0542
1.0296
1
0.96059
0.91872
0.87438
0.83498
0.80049
0.76601
0.74384
0.72414
0.71921
0.71921
0.71921
0.71921
0.71921
0.71921
0.72906
0.73399
0.73892
0.74384
0.74384
0.74384
0.73892
0.72906
0.72414
0.72414
0.71921
0.71429
0.71429
0.70443
0.70443
0.70443
0.70443
0.70443
0.69951
0.70443
0.70443
0.70443
0.70443
0.70443
0.70443
0.70443
0.70443
0.70936
0.70936
0.71921
0.74877
0.77586
0.79064
0.81034
0.80049
0.77094
0.72906
0.71429
0.71429
0.71429
0.70936
0.69458
0.67488
0.66502
0.66502
0.67488
0.6798
0.68473
0.68473
0.68966
0.69458
0.69458
0.71921
0.83498
1.0961
1.2808
1.1404
0.68473
0.20936
-0.044335
-0.078818
0.019704
0.1798
0.3202
0.41379
0.4803
0.57389
0.68966
0.78571
0.83498
0.84975
0.86453
0.87438
0.88424
0.88916
0.89901
0.90394
0.91379
0.92611
0.94089
0.96059
0.9803
1
1.0197
1.0394
1.0591
1.069
1.0739
1.069
1.0542
1.0296
1
0.96552
0.93103
0.88916
0.84975
0.81034
0.77586
0.75616
0.73892
0.72414
0.71921
0.71921
0.71921
0.71921
0.72414
0.72414
0.72906
0.73399
0.73892
0.73892
0.73892
0.73892
0.72906
0.72414
0.71921
0.71921
0.71429
0.70443
0.69951
0.69951
0.69951
0.69951
0.69951
0.69951
0.69951
0.69458
0.69458
0.69951
0.69951
0.69951
0.69951
0.69951
0.70443
0.70443
0.70936
0.71429
0.73399
0.76108
0.78079
0.79557
0.81034
0.80542
0.77094
0.73399
0.71921
0.71921
0.71921
0.71921
0.70443
0.68966
0.6798
0.6798
0.68473
0.68473
0.68966
0.69458
0.69458
0.69951
0.70443
0.73399
0.87438
1.1404
1.2808
1.0739
0.62069
0.18966
-0.0098522
-0.034483
0.078818
0.23892
0.36453
0.44581
0.50493
0.59113
0.69951
0.79064
0.8399
0.85961
0.86946
0.87438
0.88424
