-0.0039063
0.0058594
0.019531
0.0097656
0.070313
-0.0039063
0.0097656
0.025391
0.03125
0.041016
0.054688
0.050781
0.060547
0.064453
0.11133
0.076172
0.060547
0.085938
0.041016
0.041016
0.035156
0.085938
0.041016
0.019531
0.03125
0.019531
0.03125
0.025391
0.025391
0.044922
0.041016
0.060547
0.085938
0.050781
0.12109
0.10547
0.089844
0.12109
0.16602
0.125
0.095703
0.064453
0.03125
0.050781
-0.013672
-0.019531
-0.013672
-0.019531
0.035156
0.13086
0.16602
0.050781
-0.26367
-0.47461
-0.49805
-0.49805
-0.38867
-0.39453
-0.16016
-0.070313
-0.019531
0.0058594
0.0097656
0.025391
0.044922
0.03125
0.035156
0.019531
0.019531
0.019531
0.070313
0.054688
0.0097656
0
0.025391
0.044922
0.019531
0.015625
0.025391
0.03125
0.044922
0.050781
0.054688
0.054688
0.050781
0.025391
0.060547
0
0.015625
-0.048828
-0.048828
-0.048828
-0.039063
-0.025391
-0.019531
0
0.03125
0.019531
0.025391
0.060547
0.064453
0.019531
0.050781
0.085938
0.025391
0.041016
0.044922
0.064453
0.054688
0.044922
0.070313
0.064453
0.070313
0.095703
0.044922
0.070313
0.095703
0.044922
0.041016
0.070313
0.099609
0.035156
0.044922
0.035156
0.044922
0.041016
0.076172
0.015625
0.035156
0.025391
0.044922
0.060547
0.064453
0.089844
0.089844
0.12109
0.14063
0.13477
0.13086
0.11523
0.070313
0.060547
-0.013672
-0.025391
-0.019531
-0.035156
-0.025391
0.0058594
0.099609
0.14453
0.15039
-0.17383
-0.38867
-0.49805
-0.49805
-0.49414
-0.36328
-0.21875
-0.058594
-0.019531
0.0097656
0.015625
0.019531
0.019531
0.035156
0.035156
0.035156
0.025391
0.03125
0.064453
0.076172
0.0058594
0.03125
0.015625
0.0097656
0.03125
0.060547
0.044922
0.044922
0.044922
0.050781
0.054688
0.050781
0.044922
0.064453
0.0097656
0.044922
-0.025391
0.03125
-0.035156
-0.064453
-0.044922
-0.035156
-0.0039063
-0.025391
-0.013672
0
0.0097656
0.019531
0.015625
0.035156
0.070313
0.019531
0.0058594
0.03125
0.080078
0.019531
0.0097656
0.035156
0.041016
0.076172
0.015625
0.019531
0.025391
0.044922
0.085938
0.041016
0.019531
0.015625
0.03125
0.03125
0.015625
0.035156
0.054688
-0.013672
0
-0.0039063
-0.019531
-0.0097656
0
0.054688
0.019531
0.041016
0.044922
0.089844
0.050781
0.044922
0.085938
0.089844
0.050781
-0.013672
-0.025391
0
-0.070313
-0.074219
-0.035156
-0.089844
0.0097656
0.054688
0.070313
-0.22461
-0.48828
-0.49805
-0.49805
-0.49805
-0.43945
-0.24023
-0.11914
-0.064453
-0.0039063
-0.029297
-0.0097656
-0.058594
-0.013672
-0.048828
-0.054688
-0.044922
-0.058594
-0.048828
-0.048828
-0.029297
-0.019531
-0.029297
-0.025391
-0.035156
0.019531
-0.0097656
-0.019531
-0.025391
-0.029297
-0.019531
0.015625
-0.048828
-0.044922
-0.054688
-0.089844
-0.089844
-0.080078
-0.058594
-0.12891
-0.13477
-0.089844
-0.125
-0.09375
-0.10352
-0.09375
-0.083984
-0.070313
-0.054688
-0.058594
-0.019531
-0.070313
-0.054688
-0.054688
-0.044922
-0.039063
-0.0039063
-0.044922
-0.039063
-0.029297
-0.013672
-0.025391
-0.035156
-0.029297
-0.025391
-0.029297
-0.035156
-0.039063
-0.025391
0.044922
-0.029297
-0.074219
-0.054688
-0.025391
-0.080078
-0.074219
-0.039063
-0.029297
-0.044922
-0.0039063
0.0097656
0.025391
0.03125
0.044922
0.070313
0.089844
0.099609
0.041016
-0.054688
-0.080078
-0.09375
-0.058594
-0.039063
-0.09375
-0.048828
0.050781
0.10547
-0.048828
-0.36328
-0.49805
-0.49805
-0.49805
-0.42969
-0.29883
-0.1543
-0.10352
-0.070313
-0.013672
-0.0039063
-0.013672
0.0097656
0
0.015625
0.044922
0.0097656
0
0.025391
0.041016
0.015625
0.064453
0.015625
0.035156
0.064453
0.070313
0.070313
0.076172
0.080078
0.089844
0.089844
0.080078
0.089844
0.11523
0.035156
0.019531
0.041016
0.019531
-0.029297
-0.039063
-0.019531
-0.013672
-0.019531
0.0097656
0.0097656
0.019531
0.03125
0.044922
0.089844
0.041016
0.050781
0.054688
0.050781
0.054688
0.050781
0.125
0.085938
0.044922
0.044922
0.050781
0.060547
0.054688
0.070313
0.099609
0.044922
0.064453
0.070313
0.054688
0.050781
0.044922
0.050781
0.099609
0.03125
0.0097656
0.015625
0.019531
0.025391
0.019531
0.089844
0.076172
0.070313
0.089844
0.085938
0.080078
0.11523
0.13086
0.13477
0.095703
0.044922
0.064453
-0.035156
-0.025391
0.0058594
-0.039063
-0.044922
0.095703
0.14453
0.15039
-0.18359
-0.41406
-0.49805
-0.49805
-0.49805
-0.33984
-0.19336
-0.074219
-0.064453
-0.0097656
0.0058594
0.035156
0.019531
0
0.0058594
0
0.015625
0.025391
0.0058594
0
0.0097656
0.025391
0.060547
0.080078
0.025391
-0.013672
0.0058594
0.025391
0.035156
0.03125
0.019531
0.03125
0.019531
0.035156
0.0097656
-0.013672
-0.019531
-0.025391
0.044922
-0.054688
-0.064453
-0.048828
-0.025391
0
0.019531
-0.0039063
0.0097656
0.035156
0.041016
0.025391
0.041016
0.060547
0.050781
0.044922
0.085938
0.099609
0.019531
0.050781
0.060547
0.054688
0.054688
0.070313
0.076172
0.070313
0.089844
0.085938
0.10547
0.064453
0.050781
0.044922
0.076172
0.025391
0.054688
0.076172
0.03125
0.025391
0.03125
0.019531
0.044922
0.050781
0.064453
0.085938
0.099609
0.12109
0.099609
0.14063
0.15039
0.16602
0.070313
0.041016
0.019531
0.064453
-0.0097656
-0.035156
-0.025391
-0.025391
0.054688
0.12109
0.13477
-0.125
-0.4043
-0.49805
-0.49805
-0.49805
-0.38477
-0.25391
-0.11523
-0.048828
-0.013672
-0.0039063
0.0058594
0.050781
-0.013672
-0.025391
-0.013672
-0.0097656
0.019531
-0.0097656
-0.013672
-0.0039063
0.0058594
0.03125
0.044922
0
0.0097656
0.0097656
0.0097656
0.019531
0.025391
0.0097656
0.0058594
0.041016
-0.0097656
-0.039063
-0.048828
-0.074219
-0.070313
-0.074219
-0.054688
-0.029297
-0.089844
-0.074219
-0.070313
-0.058594
-0.044922
0
-0.039063
-0.048828
-0.013672
-0.029297
-0.025391
0
0.035156
-0.019531
-0.025391
-0.0097656
0.019531
-0.019531
-0.025391
0
0
0.0097656
0.015625
0.0058594
0
-0.0039063
-0.013672
-0.019531
-0.013672
-0.035156
-0.035156
-0.039063
-0.019531
0.041016
-0.074219
-0.058594
-0.044922
-0.044922
-0.029297
0
0.019531
0.0097656
0.025391
0.019531
0.050781
0.076172
0.050781
-0.019531
-0.035156
-0.0039063
-0.099609
-0.10938
-0.09375
-0.099609
-0.013672
0.019531
0.060547
-0.048828
-0.375
-0.49805
-0.49805
-0.49805
-0.49414
-0.35352
-0.19336
-0.125
-0.058594
-0.080078
-0.074219
-0.048828
-0.054688
-0.058594
-0.025391
-0.048828
-0.019531
-0.074219
-0.048828
-0.048828
-0.029297
-0.029297
-0.0039063
-0.029297
-0.039063
-0.025391
-0.019531
-0.025391
0
0
0
-0.013672
-0.025391
0.0097656
-0.039063
-0.074219
-0.074219
-0.048828
-0.013672
-0.11914
-0.10938
-0.09375
-0.074219
-0.074219
-0.048828
-0.048828
-0.039063
-0.029297
-0.0097656
0.03125
-0.035156
-0.025391
0.03125
0.0097656
0.0058594
0
0.0058594
0.015625
0.025391
0.050781
0.076172
0.03125
0.03125
0.035156
0.025391
0.041016
0.080078
0.019531
0.025391
0.060547
0.0097656
0
0.015625
-0.0039063
0.015625
0.0058594
0.019531
0.041016
0.050781
0.080078
0.089844
0.17969
0.099609
0.125
0.099609
0.125
0.10547
0.064453
0.044922
0.0097656
0
-0.0097656
-0.0039063
0.015625
0.054688
0.12109
0.17578
0.17969
-0.22852
-0.46875
-0.49805
-0.49805
-0.45898
-0.33398
-0.14453
-0.039063
0.0058594
0.035156
0.041016
0.044922
0.041016
0.054688
0.089844
0.025391
0.064453
0.035156
0.019531
0.019531
0.015625
0.025391
0.044922
0.041016
0.044922
0.060547
0.089844
0.060547
0.054688
0.099609
0.050781
0.044922
0.11133
0.019531
0
0
0
-0.013672
-0.025391
-0.025391
-0.019531
-0.013672
0
0.0097656
0.054688
0.015625
0.03125
0.080078
0.089844
0.025391
0.019531
0.035156
0.044922
0.050781
0.064453
0.076172
0.070313
0.076172
0.076172
0.11133
0.125
0.070313
0.099609
0.11523
0.15039
0.076172
0.060547
0.070313
0.064453
0.070313
0.060547
0.085938
0.054688
0.044922
0.044922
0.041016
0.085938
0.03125
0.044922
0.064453
0.076172
0.125
0.085938
0.10547
0.11523
0.10547
0.14453
0.15039
0.125
0.076172
0.050781
0.035156
0.076172
-0.025391
-0.025391
-0.013672
0.044922
0.125
0.16016
0.070313
-0.2793
-0.49805
-0.49805
-0.49805
-0.43945
-0.29492
-0.11914
0
-0.019531
0.019531
0.025391
0.03125
0.041016
0.060547
0.041016
0.019531
0.035156
0.076172
0.099609
0.019531
0
0.019531
0.03125
0.070313
0.03125
0.044922
0.050781
0.044922
0.054688
0.054688
0.060547
0.050781
0.044922
0.044922
0.03125
0.0097656
-0.0097656
-0.0097656
-0.013672
0.044922
0.054688
-0.044922
-0.025391
-0.025391
0.0058594
0.041016
0
0.0058594
0.019531
0.019531
0.03125
0.050781
0.060547
0.044922
0.035156
0.085938
0.03125
0.044922
0.054688
0.095703
0.03125
0.035156
0.041016
0.050781
0.054688
0.044922
0.041016
0.025391
0.041016
0.019531
0.044922
0
0
0.015625
0.03125
-0.019531
-0.0039063
-0.013672
0.064453
0.0058594
0.019531
0.035156
0.054688
0.070313
0.060547
0.080078
0.080078
0.076172
0.095703
-0.0097656
-0.029297
-0.048828
-0.054688
-0.058594
-0.048828
-0.054688
0.03125
0.070313
0.089844
-0.16992
-0.46484
-0.49805
-0.49805
-0.49805
-0.41992
-0.25
-0.13477
-0.048828
-0.054688
-0.044922
-0.044922
-0.035156
-0.044922
-0.039063
-0.044922
-0.029297
-0.025391
-0.035156
-0.044922
0.050781
-0.054688
-0.044922
-0.048828
-0.039063
-0.029297
-0.035156
-0.025391
-0.025391
-0.019531
-0.025391
-0.0039063
-0.025391
-0.025391
-0.044922
-0.064453
-0.048828
-0.013672
-0.11523
-0.11914
-0.125
-0.070313
-0.125
-0.11914
-0.10352
-0.09375
-0.074219
-0.058594
-0.058594
-0.048828
-0.025391
-0.0097656
-0.0097656
0.015625
-0.039063
-0.048828
-0.013672
-0.0039063
0.044922
-0.0039063
-0.0097656
-0.013672
0
0.0097656
0.025391
-0.0039063
-0.0097656
-0.013672
0.0097656
-0.054688
-0.054688
-0.048828
-0.048828
-0.044922
-0.039063
-0.035156
-0.0039063
0.041016
-0.0039063
0.015625
0.035156
0.044922
0.054688
0.099609
0.050781
0.099609
0.064453
0
-0.029297
-0.058594
-0.064453
-0.058594
-0.048828
-0.013672
-0.064453
0.054688
0.085938
0
-0.32422
-0.49805
-0.49805
-0.49805
-0.49805
-0.36914
-0.19336
-0.09375
-0.054688
-0.029297
0.0097656
0.015625
0.03125
-0.029297
0.0097656
-0.025391
-0.0097656
-0.025391
-0.013672
-0.0097656
0.0058594
0.019531
0.03125
0.041016
0.044922
0.044922
0.060547
0.11523
0.12109
0.044922
0.064453
0.085938
0.041016
0.03125
0.035156
0.019531
0
0.0058594
0
0
-0.0097656
0
0.019531
0.0097656
-0.019531
0
0
0.015625
0.019531
0.035156
0.03125
0.060547
0.041016
0.044922
0.041016
0.070313
0.089844
0.064453
0.019531
0.03125
0.044922
0.054688
0.044922
0.050781
0.070313
0.060547
0.060547
0.054688
0.060547
0.085938
0.025391
0.041016
0.095703
0
-0.0039063
0.015625
0.041016
0.054688
0.085938
0.089844
0.10547
0.099609
0.12109
0.16602
0.11523
0.080078
0.095703
0.0097656
-0.029297
-0.025391
-0.029297
-0.039063
-0.044922
0.044922
0.099609
0.13477
-0.054688
-0.30469
-0.49805
-0.49805
-0.49805
-0.46484
-0.26953
-0.11523
-0.070313
-0.029297
-0.0097656
0
0
0.019531
0.0097656
0.044922
0.015625
-0.0097656
0.0097656
0
0.0097656
0.0058594
0.050781
0.054688
0.0097656
0.019531
0.03125
0.041016
0.03125
0.041016
0.089844
0.025391
0.015625
0.03125
0
-0.0039063
0.015625
-0.0097656
0.0097656
-0.048828
-0.048828
-0.039063
-0.039063
-0.019531
0.0097656
-0.019531
-0.0039063
0.019531
0.015625
0.019531
0.019531
0.019531
0.025391
0.035156
0.070313
0.041016
0.03125
0.050781
0.070313
0.035156
0.070313
0.041016
0.054688
0.035156
0.044922
0.035156
0.035156
0.03125
0.050781
0.080078
0.019531
0.015625
0.019531
0.015625
0.054688
0
0
0.03125
0.019531
0.015625
0.0058594
0.044922
0.064453
0.085938
0.095703
0.13477
0.089844
0.099609
0.085938
0.064453
0.0058594
-0.029297
-0.039063
-0.035156
-0.044922
-0.025391
-0.0039063
0.070313
0.10547
0.0097656
-0.29883
-0.49805
-0.49805
-0.49805
-0.45313
-0.30469
-0.12891
-0.080078
-0.054688
-0.013672
0.0058594
0.015625
0.019531
0
-0.0039063
0.0097656
0
-0.0097656
-0.0039063
-0.0039063
0
0.0058594
0.0058594
0
0.025391
0.060547
-0.025391
-0.025391
-0.019531
-0.013672
0.025391
-0.0039063
-0.029297
-0.025391
-0.054688
-0.048828
-0.070313
-0.074219
-0.083984
-0.074219
-0.083984
-0.044922
-0.070313
-0.013672
-0.074219
-0.054688
-0.039063
-0.025391
-0.025391
-0.0097656
0
-0.0097656
-0.0039063
0
-0.0097656
0.0097656
-0.0039063
0
0.0097656
0.019531
0.025391
0.015625
0.054688
-0.035156
-0.039063
-0.019531
-0.039063
-0.044922
-0.025391
-0.048828
-0.048828
-0.054688
-0.048828
-0.048828
-0.054688
-0.058594
-0.070313
-0.058594
-0.0097656
-0.039063
-0.019531
-0.0039063
0.0058594
-0.0039063
0.064453
0.035156
0.03125
0.0058594
-0.048828
-0.064453
-0.099609
-0.11523
-0.11914
-0.10938
-0.10938
-0.064453
0.03125
0.050781
-0.14453
-0.43945
-0.49805
-0.49805
-0.49805
-0.49805
-0.33008
-0.14453
-0.14844
-0.11523
-0.089844
-0.074219
-0.058594
-0.048828
-0.054688
-0.025391
-0.080078
-0.089844
-0.083984
-0.074219
-0.054688
-0.058594
-0.048828
-0.058594
-0.054688
0.0058594
-0.029297
-0.048828
-0.039063
-0.048828
-0.039063
-0.0039063
0
-0.064453
-0.070313
-0.074219
-0.083984
-0.10352
-0.11914
-0.125
-0.10938
-0.09375
-0.064453
-0.048828
-0.10938
-0.09375
-0.074219
-0.035156
-0.025391
-0.054688
-0.044922
-0.048828
-0.025391
-0.0039063
-0.013672
0
-0.0097656
0
0.015625
0.060547
0.0097656
0.03125
-0.0097656
-0.025391
0
0.019531
0.0058594
0.0097656
-0.019531
-0.0097656
0.0058594
-0.0039063
0.0097656
-0.035156
-0.029297
0.03125
0.015625
0.044922
0.035156
0.03125
0.076172
0.080078
0.089844
0.089844
0.080078
0.015625
-0.0097656
-0.039063
-0.044922
-0.058594
-0.048828
-0.019531
0.0058594
0.054688
0.12109
-0.035156
-0.34375
-0.49805
-0.49805
-0.49805
-0.47852
-0.33008
-0.16406
-0.070313
-0.039063
0.025391
0.0058594
0
0.0097656
0.041016
-0.029297
-0.013672
-0.0039063
0.025391
-0.019531
0
0.015625
0
0.025391
0.03125
0.054688
0.015625
0.0097656
0.035156
0.076172
0.0097656
0.019531
0.019531
0.0097656
0
0.015625
-0.0097656
0.015625
0
-0.054688
-0.074219
-0.064453
-0.0097656
-0.054688
-0.048828
-0.029297
-0.0097656
0
-0.0039063
0.0097656
0.019531
0.044922
0.060547
0.0058594
0.015625
0.03125
0.019531
0.019531
0.054688
0.064453
0.015625
0.0097656
0.019531
0.03125
0.035156
0.025391
0.044922
0.03125
0.080078
0.015625
0.0097656
0.019531
0.019531
0.019531
0.015625
0.035156
0.089844
0.060547
0.070313
0.11133
0.12109
0.089844
0.089844
0.15039
0.060547
0.025391
-0.0097656
-0.025391
-0.048828
-0.044922
-0.044922
-0.048828
0.019531
0.064453
0.10547
0.025391
-0.2793
-0.49805
-0.49805
-0.49805
-0.49805
-0.36914
-0.19336
-0.099609
-0.054688
-0.019531
0.025391
0.035156
-0.019531
-0.019531
-0.025391
0.0097656
0.025391
-0.025391
0
0.0058594
0
0
0.03125
0.076172
0.025391
0.0097656
0.03125
0.076172
0.035156
0.064453
0.0097656
0.019531
0.019531
0.019531
-0.0097656
-0.025391
-0.019531
-0.025391
-0.025391
-0.035156
-0.039063
-0.0097656
0.050781
-0.0097656
0.015625
-0.0097656
-0.0039063
0.0097656
0.019531
0.044922
0.035156
0.025391
0.044922
0.044922
0.044922
0.041016
0.095703
0.041016
0.076172
0.03125
0.035156
0.03125
0.070313
0.044922
0.054688
0.064453
0.080078
0.050781
0.044922
0.050781
0.060547
0.050781
0.099609
0.0058594
0.0097656
0.025391
0.025391
0.025391
0.019531
0.050781
0.044922
0.070313
0.125
0.11133
0.095703
0.125
0.15039
0.18555
0.085938
0.044922
0.070313
0
-0.0097656
-0.0039063
-0.013672
-0.019531
0.054688
0.13477
0.15039
-0.054688
-0.32422
-0.48828
-0.49805
-0.49805
-0.36914
-0.22852
-0.09375
-0.029297
0.0097656
0.085938
0.041016
0.025391
0.019531
0.019531
0.025391
0.025391
0.035156
0.050781
0.080078
0.019531
0.035156
0.041016
0.035156
0.025391
0.035156
0.041016
0.041016
0.035156
0.089844
0.035156
0.044922
0.015625
0.019531
0.041016
-0.039063
-0.048828
-0.039063
-0.048828
-0.044922
-0.039063
-0.048828
-0.035156
-0.029297
0.0097656
0.015625
0.019531
0.03125
0.060547
0.064453
0.019531
0.054688
0.064453
0.025391
0.041016
0.035156
0.050781
0.054688
0.044922
0.076172
0.076172
0.10547
0.044922
0.041016
0.035156
0.041016
0.03125
0.041016
0.070313
0.019531
0
-0.0039063
-0.0097656
0.0058594
-0.025391
-0.013672
-0.029297
0.015625
0.054688
-0.035156
-0.0039063
0
0.015625
0.041016
0.060547
0.070313
0.099609
0.14063
0.064453
0.015625
-0.019531
-0.019531
-0.054688
-0.074219
-0.035156
-0.09375
-0.080078
-0.0039063
0.060547
0.085938
-0.18945
-0.46875
-0.49805
-0.49805
-0.49805
-0.4082
-0.20508
-0.14453
-0.11523
-0.09375
-0.070313
-0.044922
-0.035156
-0.039063
-0.048828
-0.044922
-0.048828
-0.044922
-0.035156
-0.029297
-0.035156
-0.0039063
-0.048828
0.0058594
-0.048828
-0.035156
-0.039063
0.0058594
-0.013672
-0.025391
-0.025391
-0.013672
-0.029297
0
-0.058594
-0.080078
-0.09375
-0.10352
-0.11914
-0.10938
-0.070313
-0.13867
-0.125
-0.10938
-0.083984
-0.064453
-0.074219
-0.029297
0.019531
-0.048828
-0.044922
-0.029297
0
0.025391
-0.019531
0.0097656
0.019531
0.035156
0.044922
0.050781
0.089844
0.041016
0.03125
0.025391
0.025391
0.03125
0.025391
0.064453
0.070313
-0.0097656
-0.019531
0
-0.025391
0.0058594
0.0097656
-0.025391
0
0.025391
0.060547
0.070313
0.080078
0.12109
0.16602
0.080078
0.089844
0.03125
-0.029297
-0.013672
-0.070313
-0.080078
-0.058594
-0.054688
-0.013672
0.076172
0.125
-0.0097656
-0.29883
-0.49805
-0.49805
-0.49805
-0.48828
-0.31445
-0.12891
-0.044922
-0.035156
-0.013672
0
0.019531
0.025391
0.015625
0.035156
0.076172
0.03125
-0.025391
-0.0097656
0
0.019531
0.035156
0.025391
0.041016
0.035156
0.070313
0.041016
0.12109
0.044922
0.015625
0.041016
0.019531
0.015625
-0.0039063
-0.0097656
-0.019531
-0.025391
-0.044922
-0.048828
-0.039063
-0.044922
0
-0.074219
-0.029297
0
-0.044922
-0.0097656
0
0.0058594
0
0.019531
0.0058594
0.060547
0
0.054688
0.0058594
0
0.019531
0.015625
0.019531
0.035156
0.044922
0.060547
0.041016
0.050781
0.015625
0.025391
0.019531
0.060547
0.0058594
-0.0097656
0.019531
0
0.015625
0.03125
0.060547
0.076172
0.11133
0.125
0.11133
0.099609
0.10547
0.085938
0.095703
-0.019531
-0.044922
-0.058594
-0.070313
-0.070313
-0.054688
-0.0097656
0.11133
0.11523
0.019531
-0.2793
-0.49805
-0.49805
-0.49805
-0.49805
-0.35352
-0.21484
-0.12891
-0.080078
-0.048828
-0.025391
0.0058594
-0.029297
-0.025391
-0.039063
-0.039063
-0.019531
-0.0039063
-0.025391
-0.019531
0.041016
0.0058594
0.050781
-0.025391
-0.029297
0
0.0097656
0.019531
0.015625
0.03125
0.035156
0.044922
-0.0039063
0
-0.025391
0.041016
-0.044922
-0.083984
-0.080078
-0.070313
-0.054688
-0.054688
-0.013672
-0.025391
-0.019531
0.015625
0
0.015625
0.019531
0
0.076172
-0.019531
0
0.0058594
0.019531
0.019531
0.019531
0.044922
0.044922
0.03125
0.054688
0.064453
0.035156
0.025391
0.085938
0.044922
0.064453
0.0058594
0.019531
0.0097656
0.019531
0.025391
0.0097656
0
0.0058594
0.019531
0.0097656
0.019531
0.025391
0.03125
0.089844
0.060547
0.13477
0.080078
0.054688
0.095703
0.099609
0.035156
0.019531
0
-0.044922
-0.048828
-0.044922
-0.054688
-0.039063
0.041016
0.13086
0.089844
-0.125
-0.39844
-0.49805
-0.49805
-0.49805
-0.44922
-0.22461
-0.089844
-0.048828
-0.039063
-0.019531
-0.0097656
0
0.03125
-0.0097656
-0.019531
-0.0097656
-0.0097656
0
0
0
0.015625
0.054688
0
-0.0097656
0
0.035156
-0.0039063
0.0097656
-0.013672
-0.0039063
-0.019531
-0.029297
-0.025391
-0.048828
-0.058594
-0.083984
-0.070313
-0.039063
-0.099609
-0.10352
-0.083984
-0.048828
-0.083984
-0.054688
-0.048828
-0.058594
-0.054688
-0.039063
-0.025391
-0.0039063
-0.013672
0.019531
0.0058594
0.015625
0.044922
0.0058594
-0.025391
-0.025391
-0.025391
-0.0097656
0
-0.0039063
0
-0.0039063
0.0058594
0.015625
0.019531
-0.029297
-0.025391
-0.029297
-0.054688
-0.044922
-0.0039063
-0.070313
-0.029297
-0.064453
-0.074219
-0.044922
-0.013672
0.0097656
0.060547
0
0.025391
0.03125
0.044922
0.050781
0
-0.039063
-0.048828
-0.083984
-0.09375
-0.083984
-0.058594
-0.11523
0.0058594
0.070313
0.0058594
-0.26953
-0.49805
-0.49805
-0.49805
-0.49805
-0.45313
-0.25977
-0.13867
-0.089844
-0.048828
-0.054688
-0.064453
-0.0097656
0.019531
-0.083984
-0.058594
-0.048828
-0.083984
-0.070313
-0.048828
-0.048828
-0.039063
-0.029297
-0.035156
-0.019531
-0.013672
-0.0039063
0.0058594
0.025391
0.0058594
-0.025391
-0.039063
0.0097656
-0.058594
-0.083984
-0.080078
-0.10352
-0.089844
-0.099609
-0.10938
-0.11523
-0.09375
-0.09375
-0.048828
-0.09375
-0.083984
-0.054688
-0.048828
-0.035156
0.0058594
-0.058594
-0.064453
-0.013672
-0.025391
-0.025391
-0.025391
0
0
0.019531
0.041016
0
0
0.0058594
0
0.019531
0.015625
0.041016
0
-0.025391
-0.035156
-0.035156
-0.025391
0.0058594
-0.013672
-0.048828
-0.035156
-0.0039063
0.019531
0.054688
0.064453
0.060547
0.080078
0.089844
0.11523
0.125
-0.013672
-0.029297
-0.054688
-0.019531
-0.064453
-0.074219
-0.058594
0.044922
0.10547
0.080078
-0.14844
-0.42383
-0.49805
-0.49805
-0.49805
-0.44336
-0.25
-0.11523
-0.035156
-0.019531
-0.048828
-0.0097656
-0.0039063
0
0.0097656
0.015625
-0.0039063
0.0058594
0.03125
0.044922
0.0097656
0.035156
0.025391
0
0.019531
0.035156
0.035156
0.044922
0.050781
0.060547
0.054688
0.070313
0.054688
0.041016
0.03125
0.015625
0
0.03125
0.054688
-0.048828
-0.048828
-0.044922
-0.035156
-0.029297
-0.025391
-0.0039063
0.015625
0.019531
0.044922
0.054688
0.041016
0.095703
0.050781
0.025391
0.0097656
0.019531
0.03125
0.064453
0.044922
0.03125
0.035156
0.050781
0.064453
0.076172
0.085938
0.050781
0.035156
0.041016
0.070313
0.019531
0.060547
0.0097656
-0.0097656
0.0058594
0.03125
0.054688
0.064453
0.085938
0.13086
0.16016
0.11523
0.14453
0.076172
0.03125
0.0058594
0.019531
-0.039063
-0.070313
-0.064453
-0.074219
-0.025391
0.050781
0.12109
0.076172
-0.18359
-0.45898
-0.49805
-0.49805
-0.49805
-0.39844
-0.24023
-0.083984
-0.074219
-0.054688
-0.035156
-0.019531
0
-0.019531
-0.019531
-0.029297
-0.025391
-0.019531
0.015625
-0.025391
-0.0039063
0
-0.0039063
0.015625
0.085938
0.03125
0.0058594
0.025391
0.0097656
0.019531
0.035156
0.044922
-0.0097656
0
-0.013672
-0.025391
-0.039063
-0.044922
-0.035156
-0.039063
-0.044922
0.0058594
-0.025391
-0.025391
-0.019531
0.025391
-0.0039063
0.019531
0.0097656
0.015625
0.044922
0.035156
0.025391
0.025391
0.03125
0.035156
0.044922
0.044922
0.099609
0.054688
0.076172
0.025391
0.044922
0.044922
0.064453
0.089844
0.044922
0.044922
0.044922
0.041016
0.044922
0.041016
0.035156
0.041016
0.080078
0.03125
0.050781
0
0.0097656
0.025391
0.035156
0.064453
0.070313
0.089844
0.099609
0.095703
0.14063
0.16602
0.050781
0.064453
-0.0039063
-0.025391
-0.035156
0.0058594
-0.054688
-0.064453
0.060547
0.12109
0.054688
-0.22852
-0.48438
-0.49805
-0.49805
-0.49805
-0.36914
-0.16992
-0.089844
-0.039063
-0.025391
0.0097656
0.044922
-0.025391
-0.035156
-0.019531
-0.0097656
-0.0097656
-0.0039063
0
0.0058594
0.044922
0.0058594
0.0097656
0.0058594
0.041016
0.019531
0.03125
0.041016
0.035156
0.070313
0.035156
0.015625
0.015625
0.0058594
0
-0.0039063
-0.013672
0.0097656
-0.025391
-0.054688
-0.064453
-0.044922
0
-0.019531
-0.029297
-0.0097656
0
0.019531
0.070313
0.019531
0.0097656
0.019531
0.03125
0.044922
0.041016
0.050781
0.089844
0.054688
0.03125
0.050781
0.064453
0.064453
0.050781
0.044922
0.076172
0.044922
0.03125
0.076172
0.035156
0.015625
0.019531
0.015625
0.025391
0.054688
-0.0039063
0
0.015625
-0.013672
-0.0039063
0.015625
0.019531
0.0058594
0.035156
0.050781
0.070313
0.070313
0.076172
0.13086
0.095703
0.12109
0.03125
0.015625
-0.019531
-0.054688
-0.058594
-0.064453
-0.070313
-0.039063
0.050781
0.089844
0.019531
-0.26953
-0.49805
-0.49805
-0.49805
-0.47852
-0.36914
-0.18359
-0.10938
-0.074219
-0.039063
-0.025391
-0.025391
-0.019531
-0.0097656
0
-0.013672
0
-0.025391
-0.029297
0.019531
-0.019531
0
0.050781
0.0058594
-0.013672
0
0.0097656
0.015625
0.0058594
0.015625
0.019531
0.019531
0.0097656
0
0.019531
-0.039063
-0.048828
-0.054688
-0.070313
-0.064453
-0.058594
-0.029297
-0.0039063
-0.039063
-0.044922
-0.029297
-0.013672
0
0.015625
0.019531
0.03125
0.050781
0.070313
0.019531
0.044922
0.050781
0.070313
0.060547
0.064453
0.054688
0.099609
0.10547
0.044922
0.060547
0.089844
0.041016
0.044922
0.064453
0.0058594
0.015625
0.015625
0.03125
0.0097656
0.0058594
0.0097656
0.0058594
0.095703
0.050781
0.076172
0.054688
0.089844
0.11523
0.15625
0.13086
0.11523
0.085938
0.050781
0.015625
-0.013672
-0.019531
-0.025391
-0.0039063
-0.0097656
0.064453
0.13086
0.085938
-0.13867
-0.4043
-0.49805
-0.49805
-0.49805
-0.41992
-0.20898
-0.089844
0
-0.0039063
0
0.0058594
0.019531
0.041016
0.11133
-0.0039063
0.0058594
-0.0097656
0.0058594
0.019531
0.019531
0.035156
0.044922
0.035156
0.025391
0.044922
0.044922
0.050781
0.064453
0.080078
0.089844
0.035156
0.089844
-0.0039063
0
-0.013672
-0.025391
-0.035156
-0.029297
-0.048828
-0.070313
-0.048828
-0.044922
-0.029297
-0.019531
0
0.03125
-0.013672
0.035156
-0.0097656
0
0.019531
0.019531
0.044922
0.064453
0.015625
0.03125
0.041016
0.054688
0.060547
0.044922
0.060547
0.085938
0.041016
0.041016
0.044922
0.080078
0.025391
0.019531
0.019531
0.044922
0.015625
0.019531
0.019531
0.03125
0.035156
0.03125
0.089844
0.085938
0.125
0.076172
0.089844
0.099609
0.13477
0.16602
0.050781
0.015625
0.015625
-0.029297
-0.035156
-0.039063
-0.029297
-0.029297
0.044922
0.10547
0.12109
-0.074219
-0.42383
-0.49805
-0.49805
-0.49805
-0.44922
-0.25977
-0.11523
-0.048828
-0.0097656
0.035156
-0.013672
-0.0097656
-0.0039063
0.0058594
-0.0039063
-0.0097656
-0.0039063
0.0097656
0
0.035156
-0.0039063
0
0.0058594
0.019531
0.019531
0.054688
0.041016
0.015625
0.0058594
0.015625
0.060547
-0.0039063
-0.0097656
-0.029297
-0.029297
-0.044922
-0.048828
-0.013672
-0.080078
-0.074219
-0.058594
-0.054688
-0.048828
-0.019531
-0.0039063
-0.0097656
0
0
0.0097656
0.050781
0.0097656
0
0.0058594
0.015625
0.025391
0.064453
0.080078
0.0097656
0.0097656
0.03125
0.025391
0.025391
0.025391
0.035156
0.025391
0.019531
0.035156
0.025391
0.060547
0.0097656
-0.019531
-0.013672
0.015625
-0.019531
-0.029297
-0.013672
-0.025391
0
0.0097656
0.019531
0.044922
0.070313
0.076172
0.050781
0.11523
0.089844
0.054688
0.015625
-0.025391
-0.048828
-0.058594
-0.064453
0.0058594
-0.080078
-0.09375
0.03125
0.070313
0
-0.28906
-0.49805
-0.49805
-0.49805
-0.48828
-0.36328
-0.17383
-0.083984
-0.064453
-0.044922
-0.025391
-0.013672
-0.019531
-0.013672
-0.025391
-0.039063
-0.013672
0.0097656
-0.035156
-0.019531
-0.048828
-0.019531
-0.025391
-0.029297
0.0097656
0
-0.019531
-0.0039063
0
-0.013672
-0.0039063
-0.0097656
-0.025391
-0.039063
-0.029297
-0.048828
-0.044922
-0.083984
-0.070313
-0.10938
-0.10938
-0.09375
-0.080078
-0.083984
-0.070313
-0.064453
-0.048828
-0.0039063
-0.025391
-0.029297
-0.019531
-0.025391
0.019531
-0.019531
-0.013672
-0.0039063
0
0.015625
0.019531
0.0058594
0.050781
0.019531
0
0
0
0.0058594
0
0
0
-0.0097656
0.0097656
-0.025391
-0.039063
-0.0039063
-0.019531
-0.013672
-0.025391
-0.0039063
0.0097656
0.03125
0.054688
0.070313
0.080078
0.076172
0.13086
0.025391
-0.013672
-0.054688
-0.029297
-0.074219
-0.074219
-0.083984
-0.064453
-0.0097656
0.050781
0.076172
-0.16992
-0.46484
-0.49805
-0.49805
-0.49805
-0.41406
-0.24023
-0.083984
-0.044922
-0.029297
-0.054688
-0.025391
-0.019531
-0.013672
-0.0097656
-0.019531
0
0.0058594
0
0.0058594
0.044922
0.0097656
0
0.054688
-0.0039063
0.054688
0.064453
0.019531
0.03125
0.041016
0.03125
0.03125
0.03125
0.019531
0.0058594
0.035156
-0.013672
-0.039063
-0.044922
-0.048828
-0.039063
-0.035156
0.015625
0.03125
-0.054688
-0.029297
-0.025391
-0.0097656
0
-0.0039063
0.050781
0.015625
0.025391
0.035156
0.044922
0.035156
0.050781
0.076172
0.095703
0.041016
0.060547
0.076172
0.044922
0.050781
0.076172
0.025391
0.041016
0.044922
0.025391
0.03125
0.015625
0.019531
0.025391
0.060547
0.015625
0.041016
0.050781
0.070313
0.11133
0.076172
0.11523
0.11133
0.095703
0.076172
0.015625
-0.0039063
-0.029297
-0.039063
-0.025391
-0.019531
-0.074219
-0.0097656
0.10547
0.13086
-0.080078
-0.35938
-0.49805
-0.49805
-0.49805
-0.47852
-0.30859
-0.11914
-0.058594
-0.025391
0.0058594
-0.0039063
0.041016
0
0.019531
-0.019531
-0.029297
-0.025391
-0.025391
-0.019531
-0.0097656
0
0.0097656
0.015625
0.025391
0.044922
0.035156
0.019531
0.041016
0.064453
0.060547
-0.0039063
-0.013672
-0.0039063
-0.019531
-0.013672
-0.039063
-0.044922
-0.039063
-0.035156
-0.048828
-0.048828
-0.039063
-0.029297
0
-0.039063
-0.019531
-0.0039063
0.050781
-0.0039063
-0.013672
0.0097656
0.044922
0.019531
0.015625
0.019531
0.035156
0.019531
0.03125
0.041016
0.080078
0.035156
0.025391
0.035156
0.044922
0.076172
0.035156
0.019531
0.041016
0.044922
0.035156
0.044922
0.025391
-0.0039063
-0.0097656
0.0058594
0.041016
0.080078
0.050781
0.076172
0.085938
0.095703
0.13477
0.11133
0.11523
0.064453
0.015625
-0.0097656
-0.029297
-0.044922
-0.048828
-0.0039063
-0.035156
0.03125
0.11523
0.099609
-0.13477
-0.4082
-0.49805
-0.49805
-0.49805
-0.45898
-0.2793
-0.12891
-0.064453
-0.025391
0.035156
-0.0039063
0.0058594
-0.0097656
-0.013672
-0.019531
-0.0097656
0
0
0.070313
0.0097656
-0.025391
-0.0097656
0
0.035156
0
0
0
0.015625
0.019531
0.0097656
0.019531
0.0058594
0
-0.013672
-0.019531
-0.039063
-0.048828
-0.0097656
-0.039063
-0.074219
-0.064453
-0.025391
-0.035156
-0.044922
-0.0097656
-0.013672
0
0
0.0058594
0.015625
0.019531
0.03125
0.025391
0.03125
0.064453
0.076172
0.025391
0.019531
0.044922
0.054688
0.019531
0.035156
0.03125
0.035156
0.041016
0.044922
0.025391
0.050781
0.0058594
0
-0.0039063
0.0097656
0.035156
-0.025391
-0.025391
-0.019531
0.0097656
0.050781
0.019531
0.035156
0.054688
0.044922
0.060547
0.085938
0.089844
0.060547
0.015625
-0.019531
-0.029297
-0.025391
-0.064453
-0.083984
-0.074219
-0.0039063
0.080078
0.070313
-0.070313
-0.31836
-0.49805
-0.49805
-0.49805
-0.47852
-0.33008
-0.1543
-0.080078
-0.039063
-0.019531
0.025391
-0.025391
-0.019531
-0.019531
0
-0.025391
-0.0097656
0
-0.0097656
-0.0039063
0
0.041016
0.0097656
0.041016
0.015625
0
0.0097656
0.019531
0.025391
0.035156
0.025391
0.054688
0
-0.0097656
-0.025391
-0.029297
-0.048828
-0.054688
-0.064453
-0.039063
-0.064453
-0.044922
-0.039063
0.0097656
0.015625
-0.035156
-0.019531
0.0058594
0.035156
0.015625
0
0.044922
0.015625
0.019531
0.03125
0.044922
0.070313
0.060547
0.054688
0.050781
0.054688
0.060547
0.054688
0.095703
0.044922
0.044922
0.044922
0.03125
0.025391
0.019531
0.064453
0.019531
0.03125
0.019531
0.044922
0.089844
0.089844
0.085938
0.089844
0.10547
0.11523
0.125
0.089844
0.099609
0.0097656
-0.0097656
-0.029297
-0.029297
0.015625
-0.039063
-0.048828
0.064453
0.11133
0.015625
-0.25
-0.49414
-0.49805
-0.49805
-0.46484
-0.30859
-0.070313
-0.025391
-0.039063
0
0.060547
0.0058594
0.019531
0.019531
0.015625
0.019531
0.025391
0.025391
0.019531
0.035156
0.044922
0.015625
0.044922
0.080078
0.03125
0.015625
0.025391
0.041016
0.044922
0.044922
0.044922
0.080078
0.019531
0.0058594
0.044922
-0.019531
-0.035156
-0.029297
-0.025391
-0.048828
-0.039063
-0.025391
-0.029297
-0.0097656
-0.025391
0
0.019531
0.0097656
0.041016
0.050781
0.015625
0.070313
0.015625
0
0.025391
0.044922
0.041016
0.041016
0.035156
0.025391
0.025391
0.041016
0.044922
0.035156
0.041016
0.035156
0.050781
0.03125
0.054688
0.089844
0.015625
0.0097656
0.064453
0.025391
0.060547
0.064453
0.085938
0.089844
0.095703
0.11133
0.11523
0.076172
0.035156
0.015625
0.060547
-0.044922
-0.080078
-0.074219
-0.048828
0.035156
0.076172
0.089844
-0.070313
-0.34961
-0.49805
-0.49805
-0.49805
-0.46484
-0.28906
-0.13477
-0.089844
-0.039063
0.0097656
-0.025391
-0.025391
-0.025391
-0.025391
-0.0097656
0.025391
0.0058594
0.025391
-0.019531
0.0097656
-0.044922
-0.025391
-0.025391
-0.019531
-0.0039063
0.0058594
0.0097656
0.025391
0.03125
0.054688
0.13086
0.0058594
-0.013672
-0.044922
-0.058594
-0.058594
-0.070313
-0.064453
-0.070313
-0.064453
-0.058594
-0.044922
-0.035156
-0.029297
-0.019531
-0.0039063
0.044922
-0.013672
-0.0039063
0.0097656
0.0097656
0.076172
0.080078
-0.0097656
0.044922
0.035156
0.025391
0.019531
0.03125
0.035156
0.044922
0.044922
0.050781
0.044922
0.050781
0.041016
0.041016
0.035156
0.03125
0.076172
0.03125
0
-0.0039063
-0.0039063
0.050781
0.015625
0.03125
0.054688
0.070313
0.080078
0.070313
0.099609
0.10547
0.11133
0.076172
0.025391
-0.025391
-0.035156
-0.044922
-0.048828
-0.064453
-0.048828
0.041016
0.089844
0.095703
-0.16992
-0.43359
-0.49805
-0.49805
-0.49805
-0.42383
-0.24023
-0.070313
-0.070313
-0.029297
-0.013672
-0.0039063
-0.013672
-0.025391
-0.019531
-0.013672
-0.013672
-0.0097656
-0.013672
-0.0097656
-0.0039063
0
0.015625
0.019531
0.019531
0.070313
0.019531
0.019531
0.015625
0.025391
0.019531
0.03125
-0.0039063
-0.025391
-0.029297
-0.044922
-0.048828
-0.064453
-0.064453
-0.080078
-0.074219
-0.058594
-0.048828
-0.039063
-0.035156
-0.019531
-0.0097656
-0.0097656
0
0
0.0097656
0.019531
0.015625
0.015625
0.025391
0.025391
0.03125
0.019531
0.025391
0.035156
0.035156
0.044922
0.044922
0.050781
0.044922
0.03125
0.03125
0.035156
0.015625
0
-0.0039063
0
0.015625
0.025391
0.035156
0.044922
0.070313
0.076172
0.089844
0.095703
0.099609
0.095703
0.11523
0.035156
0
-0.025391
-0.039063
-0.054688
-0.044922
-0.044922
-0.048828
0.044922
0.089844
0.0058594
-0.28906
-0.49805
-0.49805
-0.49805
-0.46875
-0.34375
-0.16992
-0.089844
-0.044922
-0.019531
-0.0039063
0
-0.0039063
0
0
-0.0097656
-0.0097656
0
0
0.0097656
0.0097656
0.015625
0.015625
0.03125
0.035156
0.03125
0.035156
0.044922
0.044922
0.050781
0.044922
0.041016
0.025391
0.0097656
0.0058594
-0.0097656
-0.0039063
-0.039063
-0.048828
-0.054688
-0.054688
-0.048828
-0.039063
-0.029297
-0.019531
-0.0039063
-0.0039063
0
0.0058594
0.0097656
0.015625
0.019531
0.03125
0.035156
0.035156
0.03125
0.041016
0.041016
0.054688
0.050781
0.070313
0.060547
0.050781
0.054688
0.060547
0.054688
0.044922
0.044922
0.035156
0.041016
0.03125
0.044922
0.025391
0.054688
0.076172
0.089844
0.089844
0.10547
0.11523
0.11523
0.12109
0.076172
0.035156
0.0097656
-0.025391
-0.044922
-0.048828
-0.039063
-0.044922
0.0058594
0.080078
0.15039
-0.025391
-0.35938
-0.49805
-0.49805
-0.49805
-0.48438
-0.30469
-0.14453
-0.064453
-0.035156
0.0058594
0.015625
0.0097656
0.019531
0.0097656
0.015625
0.0058594
0.015625
0.0058594
0.015625
0.019531
0.044922
0.076172
0.0097656
0.015625
0.019531
0.041016
0.050781
0.03125
0.041016
0.044922
0.050781
0.044922
0.044922
0.019531
0.0097656
0.03125
-0.0097656
-0.035156
-0.035156
-0.029297
-0.035156
-0.025391
-0.029297
0.035156
-0.0097656
0.0058594
0.0097656
0.025391
0.03125
0.041016
0.044922
0.044922
0.060547
0.064453
0.044922
0.044922
0.050781
0.044922
0.064453
0.050781
0.054688
0.050781
0.054688
0.060547
0.080078
0.11133
0.050781
0.041016
0.035156
0.044922
0.054688
0.03125
0.044922
0.060547
0.099609
0.10547
0.089844
0.11133
0.15039
0.15625
0.11133
0.050781
0.019531
-0.0039063
-0.013672
-0.035156
-0.048828
-0.058594
0
0.041016
0.095703
0.060547
-0.21875
-0.48828
-0.49805
-0.49805
-0.49805
-0.38477
-0.21875
-0.099609
-0.054688
-0.025391
-0.0039063
0.0058594
-0.013672
-0.0097656
-0.0039063
0.019531
