0.22353
0.22941
0.22941
0.22941
0.22941
0.22941
0.22941
0.23333
0.22941
0.23333
0.23333
0.23333
0.23922
0.23333
0.23922
0.2451
0.24902
0.2549
0.24902
0.2451
0.24902
0.26471
0.27843
0.28431
0.2902
0.26471
0.26471
0.2549
0.24902
0.2
0.1549
0.20392
0.22941
0.2098
0.17843
0.1098
0.07451
0.04902
0.062745
0.094118
0.13333
0.1098
0.078431
0.12941
0.20392
0.27451
0.3
0.26471
0.21373
0.20392
0.21373
0.21373
0.21373
0.21961
0.2098
0.22353
0.21961
0.22353
0.22353
0.22353
0.22353
0.21961
0.22353
0.22941
0.22941
0.22941
0.23333
0.22941
0.23922
0.23333
0.24902
0.24902
0.2549
0.2549
0.26471
0.25882
0.27451
0.26863
0.27451
0.27451
0.27843
0.27451
0.28431
0.27451
0.27843
0.27451
0.27451
0.26471
0.26863
0.25882
0.2549
0.25882
0.2549
0.24902
0.2451
0.23922
0.23333
0.22941
0.22941
0.22353
0.21961
0.22353
0.2098
0.2098
0.20392
0.2098
0.20392
0.20392
0.20392
0.2098
0.20392
0.2098
0.2098
0.21373
0.21961
0.21373
0.22353
0.21373
0.22353
0.21961
0.22941
0.22353
0.22941
0.21961
0.22941
0.22353
0.22941
0.22353
0.22353
0.21961
0.22941
0.21961
0.22941
0.22941
0.23922
0.23922
0.23922
0.23333
0.24902
0.24902
0.26863
0.27451
0.26471
0.24902
0.2451
0.22941
0.22353
0.21373
0.13333
0.1098
0.17843
0.19412
0.17843
0.14314
0.068627
0.039216
0.017647
0.043137
0.07451
0.11373
0.07451
0.058824
0.12941
0.2098
0.26471
0.27843
0.21961
0.17843
0.18431
0.18431
0.18824
0.18431
0.2
0.19412
0.20392
0.2
0.20392
0.2
0.20392
0.2
0.20392
0.2
0.20392
0.20392
0.20392
0.20392
0.2098
0.2098
0.21961
0.21961
0.22353
0.22941
0.23333
0.23333
0.23922
0.2451
0.2451
0.24902
0.24902
0.2549
0.24902
0.25882
0.25882
0.25882
0.2549
0.25882
0.24902
0.24902
0.2451
0.2451
0.23922
0.23922
0.22941
0.22941
0.22353
0.22353
0.2098
0.2098
0.20392
0.20392
0.20392
0.2
0.19412
0.19412
0.2
0.18824
0.19412
0.19412
0.20392
0.2
0.20392
0.2
0.20392
0.20392
0.2098
0.2098
0.21373
0.2098
0.21961
0.21373
0.21961
0.21373
0.21961
0.21373
0.2098
0.21961
0.21373
0.21961
0.21373
0.22353
0.22941
0.23333
0.22941
0.22941
0.22353
0.23922
0.2451
0.26863
0.27451
0.26863
0.2451
0.2451
0.22941
0.22941
0.21961
0.14314
0.11961
0.19412
0.2
0.18824
0.14902
0.094118
0.058824
0.043137
0.058824
0.088235
0.12941
0.088235
0.078431
0.13922
0.21961
0.26863
0.28431
0.21961
0.17843
0.17843
0.17843
0.17843
0.18824
0.18431
0.18824
0.19412
0.18824
0.18431
0.18824
0.18431
0.18431
0.19412
0.19412
0.2
0.19412
0.20392
0.2
0.20392
0.20392
0.20392
0.20392
0.21961
0.21961
0.22941
0.23333
0.2451
0.23333
0.24902
0.2451
0.24902
0.24902
0.24902
0.24902
0.2549
0.24902
0.24902
0.24902
0.2451
0.24902
0.2451
0.2451
0.23922
0.23333
0.22941
0.22941
0.21961
0.21961
0.2098
0.2098
0.20392
0.20392
0.19412
0.19412
0.18431
0.18824
0.17843
0.18431
0.18824
0.18431
0.17843
0.18431
0.18824
0.18431
0.18824
0.19412
0.2
0.19412
0.2
0.19412
0.20392
0.2
0.20392
0.2
0.20392
0.20392
0.20392
0.2
0.20392
0.20392
0.20392
0.20392
0.2098
0.21961
0.22353
0.21961
0.21373
0.21961
0.22941
0.24902
0.2549
0.26471
0.2451
0.23333
0.22353
0.21373
0.20392
0.18824
0.1098
0.15882
0.17451
0.17843
0.14902
0.098039
0.058824
0.039216
0.033333
0.07451
0.1098
0.11373
0.062745
0.1098
0.17451
0.2451
0.27451
0.22941
0.16863
0.1549
0.16471
0.16863
0.17451
0.16863
0.17843
0.16863
0.17843
0.17843
0.18431
0.17843
0.17843
0.17843
0.18431
0.17843
0.17843
0.18431
0.18824
0.19412
0.18824
0.2
0.20392
0.2098
0.20392
0.21961
0.21961
0.22941
0.22941
0.23333
0.22941
0.23922
0.23922
0.24902
0.2451
0.2549
0.24902
0.24902
0.2451
0.24902
0.2451
0.23922
0.22941
0.23333
0.22353
0.22353
0.21961
0.21373
0.2098
0.20392
0.2098
0.2
0.20392
0.18824
0.18431
0.17843
0.18431
0.17843
0.18824
0.17843
0.17843
0.17843
0.18824
0.18431
0.19412
0.19412
0.20392
0.20392
0.20392
0.2
0.20392
0.20392
0.2
0.20392
0.20392
0.20392
0.20392
0.20392
0.20392
0.2098
0.20392
0.2098
0.2098
0.22353
0.22353
0.23333
0.22941
0.23333
0.22353
0.23333
0.2451
0.26471
0.26471
0.26471
0.24902
0.2451
0.23333
0.22941
0.21373
0.16471
0.11961
0.17451
0.18824
0.17843
0.14902
0.07451
0.033333
0.013725
0.033333
0.062745
0.098039
0.062745
0.039216
0.088235
0.16863
0.23922
0.27843
0.23333
0.2
0.18824
0.2
0.19412
0.2
0.19412
0.19412
0.19412
0.19412
0.2
0.19412
0.2
0.20392
0.20392
0.20392
0.2098
0.2098
0.21961
0.21961
0.22941
0.22941
0.22941
0.23333
0.23333
0.23333
0.24902
0.24902
0.2549
0.25882
0.2549
0.26863
0.26471
0.27451
0.26863
0.27843
0.27451
0.27451
0.27451
0.27451
0.26471
0.26863
0.26471
0.26863
0.24902
0.24902
0.24902
0.24902
0.23333
0.23333
0.22941
0.22941
0.21961
0.21961
0.2098
0.20392
0.2098
0.20392
0.20392
0.20392
0.20392
0.20392
0.2098
0.20392
0.2098
0.2098
0.21373
0.21373
0.21373
0.21373
0.22353
0.21373
0.22941
0.22353
0.22353
0.22353
0.22941
0.22353
0.22941
0.21961
0.22941
0.22941
0.22941
0.23333
0.23922
0.24902
0.24902
0.24902
0.23922
0.2451
0.24902
0.26863
0.27451
0.28431
0.26863
0.25882
0.2451
0.23922
0.22941
0.21373
0.12941
0.17843
0.2
0.2
0.17843
0.12353
0.068627
0.043137
0.039216
0.078431
0.11961
0.13333
0.084314
0.11961
0.18824
0.25882
0.29412
0.26471
0.2098
0.18431
0.20392
0.20392
0.20392
0.2
0.20392
0.20392
0.2098
0.2098
0.21373
0.2098
0.21373
0.21961
0.21373
0.22353
0.21961
0.22353
0.21961
0.22941
0.22941
0.23922
0.23333
0.2451
0.24902
0.24902
0.24902
0.26471
0.26471
0.27451
0.27451
0.27843
0.27451
0.27843
0.27843
0.28431
0.27843
0.27843
0.27451
0.27843
0.27451
0.27451
0.26863
0.26863
0.26471
0.25882
0.26471
0.2549
0.24902
0.24902
0.24902
0.2451
0.2451
0.23333
0.23922
0.22941
0.22941
0.22941
0.22941
0.21961
0.22941
0.21961
0.22353
0.22941
0.22941
0.22941
0.22941
0.23333
0.22941
0.23333
0.23333
0.23922
0.23333
0.23922
0.22941
0.2451
0.23922
0.2451
0.23922
0.2451
0.23333
0.2451
0.24902
0.24902
0.24902
0.26471
0.2549
0.2549
0.24902
0.25882
0.27451
0.29412
0.3
0.28431
0.26863
0.26471
0.24902
0.23922
0.23333
0.16471
0.13333
0.2
0.2098
0.20392
0.17843
0.11373
0.078431
0.058824
0.078431
0.10392
0.14902
0.1098
0.088235
0.1549
0.23333
0.2902
0.3
0.23922
0.18824
0.19412
0.2
0.20392
0.19412
0.20392
0.2
0.20392
0.2
0.20392
0.20392
0.2098
0.2098
0.2098
0.2098
0.21373
0.2098
0.21961
0.21961
0.22353
0.22941
0.22941
0.23333
0.23922
0.2451
0.23922
0.24902
0.2549
0.24902
0.24902
0.25882
0.25882
0.26863
0.25882
0.26863
0.26471
0.26863
0.26471
0.26863
0.25882
0.25882
0.24902
0.24902
0.2451
0.24902
0.2451
0.2451
0.22941
0.22941
0.22941
0.21961
0.2098
0.2098
0.20392
0.20392
0.20392
0.2
0.2
0.19412
0.2
0.19412
0.2
0.2
0.20392
0.2
0.20392
0.20392
0.2098
0.20392
0.2098
0.2098
0.2098
0.20392
0.20392
0.2098
0.21373
0.21373
0.21961
0.22353
0.21373
0.21961
0.21373
0.22353
0.21961
0.22941
0.23333
0.23922
0.22353
0.22941
0.23333
0.2549
0.26863
0.27451
0.2549
0.24902
0.23922
0.23333
0.21961
0.21373
0.13333
0.12941
0.18824
0.18824
0.17451
0.12353
0.068627
0.039216
0.039216
0.068627
0.10392
0.11961
0.062745
0.058824
0.1549
0.22941
0.27451
0.27843
0.20392
0.17843
0.19412
0.18824
0.19412
0.18824
0.19412
0.2
0.19412
0.20392
0.19412
0.20392
0.20392
0.2098
0.20392
0.20392
0.20392
0.20392
0.20392
0.2098
0.20392
0.21373
0.21373
0.22941
0.22941
0.23922
0.2451
0.24902
0.2451
0.2549
0.2549
0.26471
0.25882
0.2549
0.26471
0.26863
0.26471
0.26471
0.26863
0.26471
0.26863
0.24902
0.24902
0.2451
0.2451
0.23922
0.23922
0.22941
0.22941
0.22353
0.22353
0.21373
0.21961
0.20392
0.20392
0.2
0.20392
0.19412
0.2
0.19412
0.20392
0.20392
0.20392
0.20392
0.20392
0.20392
0.20392
0.20392
0.2098
0.21373
0.20392
0.2098
0.20392
0.2098
0.20392
0.2098
0.20392
0.21373
0.20392
0.2098
0.2098
0.21373
0.21961
0.22353
0.22353
0.22941
0.23333
0.23333
0.22353
0.21961
0.23333
0.2451
0.25882
0.25882
0.24902
0.22941
0.23333
0.21961
0.2098
0.18824
0.1098
0.14314
0.18431
0.17843
0.15882
0.098039
0.043137
0.013725
0.0078431
0.04902
0.084314
0.10392
0.052941
0.078431
0.1549
0.23333
0.26471
0.27451
0.18824
0.17451
0.17843
0.18431
0.17843
0.18431
0.17843
0.18824
0.18431
0.18824
0.18431
0.19412
0.18431
0.19412
0.18824
0.19412
0.18824
0.19412
0.2
0.20392
0.20392
0.2
0.2098
0.20392
0.2098
0.21373
0.22353
0.22941
0.23333
0.22941
0.2451
0.23922
0.2451
0.2451
0.24902
0.2451
0.24902
0.2451
0.24902
0.2451
0.2451
0.2451
0.2451
0.22941
0.22941
0.21961
0.21961
0.2098
0.20392
0.20392
0.2
0.19412
0.18824
0.19412
0.18431
0.18824
0.17843
0.18431
0.17451
0.17843
0.17451
0.17843
0.17451
0.18431
0.18431
0.18431
0.18824
0.17843
0.18431
0.18431
0.18824
0.19412
0.2
0.19412
0.2
0.19412
0.2
0.18824
0.19412
0.18824
0.19412
0.19412
0.20392
0.2
0.20392
0.21373
0.22353
0.20392
0.2098
0.21373
0.22941
0.24902
0.2549
0.2451
0.23333
0.22941
0.21961
0.2
0.18431
0.11961
0.094118
0.16471
0.16863
0.17451
0.12941
0.07451
0.039216
0.023529
0.033333
0.07451
0.1098
0.078431
0.062745
0.12941
0.20392
0.26471
0.27451
0.2098
0.16471
0.17451
0.17843
0.17451
0.17451
0.17843
0.17451
0.17843
0.17843
0.17843
0.18431
0.18431
0.18824
0.18431
0.18824
0.18431
0.18824
0.18431
0.19412
0.19412
0.2
0.20392
0.2098
0.21373
0.21961
0.22353
0.22941
0.23333
0.23333
0.23922
0.2451
0.24902
0.24902
0.2549
0.24902
0.24902
0.24902
0.24902
0.24902
0.24902
0.2451
0.2451
0.23922
0.23922
0.22941
0.23333
0.22353
0.21961
0.21373
0.21961
0.2098
0.21373
0.20392
0.20392
0.20392
0.2
0.19412
0.18824
0.2
0.18824
0.18431
0.18824
0.19412
0.19412
0.20392
0.2
0.20392
0.20392
0.2098
0.20392
0.2098
0.2098
0.21373
0.21373
0.21373
0.21373
0.21961
0.21373
0.21961
0.21961
0.21961
0.22941
0.22353
0.22941
0.23333
0.2451
0.23922
0.22941
0.22941
0.24902
0.25882
0.27843
0.27451
0.26471
0.24902
0.2549
0.22941
0.22941
0.2
0.11961
0.15882
0.19412
0.18824
0.17451
0.12353
0.078431
0.052941
0.039216
0.07451
0.1098
0.12941
0.084314
0.11961
0.17843
0.25882
0.29412
0.26471
0.19412
0.17843
0.18431
0.18824
0.18431
0.19412
0.19412
0.20392
0.2
0.20392
0.2
0.20392
0.20392
0.2
0.20392
0.2
0.20392
0.20392
0.20392
0.20392
0.20392
0.20392
0.21373
0.21373
0.22353
0.22353
0.22941
0.22941
0.23922
0.23922
0.24902
0.2451
0.24902
0.24902
0.2549
0.24902
0.2549
0.24902
0.2549
0.24902
0.2451
0.24902
0.23922
0.2451
0.23333
0.23922
0.22941
0.22353
0.21961
0.22353
0.2098
0.2098
0.20392
0.20392
0.19412
0.19412
0.18431
0.18824
0.18431
0.18824
0.18431
0.18824
0.19412
0.2
0.2
0.2
0.20392
0.20392
0.2098
0.20392
0.2098
0.20392
0.21373
0.2098
0.21373
0.20392
0.21961
0.2098
0.21961
0.21373
0.22353
0.21373
0.21961
0.21961
0.22941
0.22941
0.23922
0.2451
0.23333
0.23922
0.24902
0.26471
0.27451
0.27451
0.25882
0.24902
0.23922
0.22941
0.21961
0.2
0.11373
0.16863
0.18824
0.19412
0.16471
0.11373
0.04902
0.023529
0.017647
0.062745
0.084314
0.10392
0.04902
0.07451
0.14314
0.23922
0.27451
0.27843
0.2098
0.19412
0.20392
0.20392
0.20392
0.20392
0.20392
0.20392
0.20392
0.20392
0.20392
0.20392
0.20392
0.20392
0.2098
0.20392
0.2098
0.20392
0.2098
0.2098
0.21373
0.21961
0.22353
0.22941
0.22941
0.23333
0.23922
0.2451
0.24902
0.2549
0.2549
0.25882
0.2549
0.26471
0.26471
0.26863
0.26471
0.26863
0.2549
0.25882
0.24902
0.2549
0.24902
0.24902
0.2451
0.23922
0.23333
0.23333
0.22941
0.22353
0.21373
0.21373
0.2098
0.20392
0.20392
0.2
0.20392
0.19412
0.2
0.19412
0.2
0.19412
0.2
0.19412
0.2
0.2
0.20392
0.20392
0.20392
0.20392
0.2098
0.2098
0.21373
0.21373
0.21961
0.21373
0.21961
0.22353
0.21373
0.22353
0.21961
0.22941
0.22353
0.22941
0.22353
0.2451
0.23922
0.23333
0.22941
0.2451
0.24902
0.26863
0.27451
0.27451
0.2549
0.24902
0.23922
0.22941
0.21961
0.14314
0.11961
0.18431
0.19412
0.18431
0.14902
0.084314
0.04902
0.033333
0.058824
0.084314
0.12941
0.084314
0.07451
0.14314
0.22353
0.27451
0.28431
0.21961
0.18431
0.18824
0.2
0.19412
0.2
0.2
0.20392
0.20392
0.2
0.20392
0.20392
0.20392
0.20392
0.20392
0.20392
0.2098
0.2098
0.21373
0.20392
0.21373
0.21373
0.22353
0.22353
0.22941
0.22941
0.23333
0.23922
0.24902
0.24902
0.24902
0.24902
0.24902
0.2549
0.2549
0.24902
0.24902
0.24902
0.24902
0.24902
0.2451
0.24902
0.23333
0.23922
0.23333
0.23333
0.22941
0.22941
0.21373
0.21373
0.20392
0.2098
0.20392
0.20392
0.20392
0.20392
0.2
0.2
0.20392
0.19412
0.20392
0.2
0.20392
0.20392
0.2098
0.2098
0.21373
0.20392
0.21373
0.20392
0.21373
0.2098
0.22353
0.21961
0.22353
0.21373
0.22353
0.21373
0.22353
0.21373
0.21961
0.21373
0.21961
0.22941
0.22353
0.22941
0.23333
0.23922
0.22941
0.23333
0.2451
0.26471
0.27451
0.27451
0.26471
0.2549
0.2451
0.23333
0.21961
0.2098
0.1098
0.1549
0.19412
0.2
0.17843
0.13922
0.084314
0.058824
0.04902
0.07451
0.10392
0.12353
0.084314
0.078431
0.16863
0.23922
0.28431
0.2549
0.18824
0.16471
0.17843
0.17451
0.17843
0.17843
0.18431
0.18431
0.18824
0.19412
0.2
0.19412
0.2
0.20392
0.2
0.20392
0.20392
0.20392
0.20392
0.21373
0.2098
0.21961
0.21373
0.22353
0.22353
0.22941
0.22353
0.23333
0.22941
0.2451
0.23922
0.24902
0.2451
0.24902
0.24902
0.26471
0.26863
0.27451
0.27451
0.27451
0.26863
0.26471
0.26863
0.2549
0.24902
0.23922
0.23333
0.22941
0.22941
0.22353
0.22353
0.21373
0.21961
0.2098
0.2098
0.20392
0.2
0.19412
0.2
0.19412
0.2
0.19412
0.2
0.2
0.20392
0.20392
0.20392
0.20392
0.2098
0.21373
0.21373
0.21961
0.21961
0.22353
0.21961
0.22353
0.21373
0.21961
0.21961
0.22353
0.22353
0.22941
0.22941
0.22941
0.22941
0.2451
0.23922
0.23333
0.22941
0.23922
0.24902
0.26863
0.27451
0.27451
0.2549
0.24902
0.23922
0.22941
0.21961
0.16863
0.12353
0.17843
0.18824
0.17843
0.1549
0.094118
0.062745
0.039216
0.052941
0.084314
0.12353
0.088235
0.068627
0.12353
0.2
0.25882
0.27843
0.22353
0.17843
0.17843
0.18431
0.18824
0.18431
0.19412
0.18824
0.20392
0.2
0.20392
0.2
0.20392
0.20392
0.20392
0.20392
0.2098
0.20392
0.2098
0.2098
0.21961
0.21961
0.22941
0.22941
0.22941
0.23333
0.23922
0.24902
0.24902
0.2549
0.2549
0.25882
0.26471
0.27451
0.26863
0.26863
0.26863
0.26863
0.25882
0.26471
0.25882
0.26471
0.24902
0.2549
0.24902
0.2451
0.23333
0.23333
0.22941
0.22941
0.21961
0.21373
0.20392
0.20392
0.2
0.19412
0.2
0.19412
0.2
0.18824
0.19412
0.19412
0.20392
0.20392
0.20392
0.20392
0.20392
0.20392
0.20392
0.20392
0.2098
0.20392
0.20392
0.2098
0.20392
0.2098
0.20392
0.2098
0.2098
0.21373
0.2098
0.21373
0.2098
0.21961
0.21373
0.22353
0.22353
0.22941
0.22353
0.22941
0.22941
0.24902
0.25882
0.26471
0.24902
0.24902
0.23922
0.22941
0.21373
0.2098
0.13922
0.1098
0.17451
0.17843
0.18431
0.12941
0.058824
0.023529
0.013725
0.039216
0.07451
0.10392
0.068627
0.04902
0.13922
0.21373
0.26863
0.27843
0.22353
0.17843
0.19412
0.19412
0.2
0.19412
0.20392
0.19412
0.2
0.19412
0.2
0.19412
0.19412
0.2
0.19412
0.20392
0.20392
0.20392
0.20392
0.2098
0.2098
0.21961
0.21373
0.22353
0.22353
0.22941
0.22941
0.2451
0.2451
0.24902
0.24902
0.2549
0.25882
0.2549
0.25882
0.2549
0.26471
0.2549
0.24902
0.24902
0.2549
0.24902
0.2451
0.23922
0.2451
0.22941
0.23333
0.22353
0.22941
0.21961
0.21961
0.21373
0.21961
0.20392
0.20392
0.20392
0.20392
0.19412
0.2
0.19412
0.2
0.19412
0.2
0.20392
0.2
0.20392
0.20392
0.2098
0.20392
0.2098
0.2098
0.2098
0.20392
0.2098
0.2098
0.21373
0.2098
0.21373
0.21373
0.21961
0.21373
0.22353
0.22353
0.22941
0.22941
0.2451
0.23922
0.23333
0.22941
0.2451
0.2549
0.26863
0.27451
0.27451
0.25882
0.24902
0.2451
0.22353
0.21961
0.17451
0.12353
0.17843
0.20392
0.18431
0.15882
0.098039
0.058824
0.039216
0.04902
0.078431
0.12941
0.098039
0.078431
0.13333
0.21373
0.26863
0.2902
0.23922
0.17843
0.18431
0.18431
0.17843
0.17843
0.18824
0.18824
0.19412
0.18824
0.20392
0.19412
0.2
0.2
0.20392
0.20392
0.20392
0.20392
0.2
0.20392
0.2
0.20392
0.2098
0.22353
0.21961
0.22941
0.22941
0.23333
0.23922
0.24902
0.2451
0.2549
0.2549
0.25882
0.2549
0.25882
0.24902
0.25882
0.2549
0.2549
0.24902
0.25882
0.2549
0.2549
0.2451
0.2451
0.24902
0.23922
0.22941
0.22353
0.21961
0.2098
0.21373
0.20392
0.20392
0.2
0.20392
0.18824
0.19412
0.18824
0.20392
0.19412
0.20392
0.19412
0.20392
0.2098
0.20392
0.2098
0.2098
0.21373
0.2098
0.21961
0.22353
0.22941
0.21961
0.22941
0.21961
0.22353
0.21961
0.22353
0.2098
0.21373
0.2098
0.21961
0.21373
0.23333
0.23922
0.22941
0.22353
0.23333
0.2451
0.26471
0.27451
0.27451
0.24902
0.24902
0.2451
0.22941
0.2098
0.18824
0.11961
0.16471
0.18824
0.17843
0.18431
0.10392
0.068627
0.04902
0.039216
0.07451
0.11961
0.13333
0.084314
0.11961
0.19412
0.26471
0.2902
0.23922
0.18431
0.16471
0.17451
0.16863
0.16863
0.16863
0.17451
0.17451
0.17451
0.17843
0.18431
0.18824
0.17843
0.18431
0.17843
0.17843
0.17843
0.18824
0.18431
0.19412
0.18824
0.20392
0.19412
0.20392
0.2
0.22353
0.22941
0.22353
0.21373
0.22941
0.22941
0.23922
0.24902
0.22353
0.24902
0.24902
0.24902
0.23333
0.23922
0.22941
0.22941
0.22941
0.23333
0.23922
0.22941
0.22353
0.21961
0.2098
0.21373
0.20392
0.20392
0.2
0.20392
0.18824
0.18431
0.2
0.20392
0.18824
0.17843
0.18431
0.18824
0.19412
0.17843
0.19412
0.19412
0.2
0.18431
0.20392
0.18431
0.2
0.2098
0.2
0.20392
0.20392
0.2098
0.20392
0.2098
0.20392
0.2098
0.20392
0.20392
0.21373
0.2098
0.21961
0.22941
0.22941
0.23333
0.22353
0.21961
0.23333
0.2549
0.2549
0.26471
0.2549
0.2451
0.22941
0.22941
0.21961
0.22353
0.15882
0.1098
0.16863
0.17843
0.18431
0.15882
0.1098
0.058824
0.039216
0.058824
0.094118
0.13333
0.13922
0.084314
0.13922
0.2098
0.28431
0.3
0.23922
0.17843
0.17843
0.18824
0.17843
0.17843
0.18431
0.18824
0.17843
0.17843
0.19412
0.18431
0.17843
0.18824
0.18431
0.18824
0.19412
0.20392
0.19412
0.20392
0.2
0.19412
0.19412
0.20392
0.20392
0.21961
0.2098
0.21961
0.22941
0.23922
0.2451
0.24902
0.24902
0.24902
0.23922
0.23333
0.24902
0.24902
0.2549
0.24902
0.2451
0.2451
0.23922
0.22941
0.2451
0.22941
0.22941
0.22353
0.22941
0.20392
0.21373
0.2
0.20392
0.2
0.2
0.19412
0.2
0.18824
0.18431
0.17843
0.18431
0.19412
0.17843
0.18431
0.17843
0.18431
0.17843
0.19412
0.18824
0.20392
0.17843
0.19412
0.2
0.20392
0.19412
0.20392
0.19412
0.20392
0.20392
0.20392
0.2098
0.19412
0.20392
0.2
0.20392
0.22353
0.22941
0.21961
0.21961
0.21373
0.23922
0.23333
0.2549
0.25882
0.26471
0.23922
0.22353
0.21961
0.20392
0.18824
0.11961
0.15882
0.18431
0.16863
0.15882
0.11373
0.07451
0.043137
0.043137
0.078431
0.10392
0.12941
0.094118
0.088235
0.18431
0.26471
0.3
0.25882
0.19412
0.16471
0.16471
0.16863
0.15882
0.17451
0.16863
0.18431
0.17843
0.17843
0.17451
0.18431
0.17843
0.17843
0.17843
0.19412
0.17843
0.18431
0.17843
0.18431
0.19412
0.20392
0.2
0.20392
0.21373
0.21373
0.21961
0.22941
0.23922
0.22941
0.23922
0.23922
0.24902
0.2451
0.24902
0.2451
0.24902
0.22941
0.23333
0.2451
0.24902
0.22941
0.22941
0.22941
0.21961
0.22353
0.21373
0.21373
0.21373
0.2098
0.2098
0.20392
0.19412
0.18824
0.18431
0.18824
0.18431
0.19412
0.18824
0.19412
0.18824
0.18824
0.18431
0.2
0.18824
0.2
0.19412
0.2
0.2
0.20392
0.2
0.20392
0.20392
0.2
0.20392
0.20392
0.20392
0.20392
0.2098
0.20392
0.2098
0.20392
0.2098
0.2098
0.21961
0.22941
0.23333
0.22353
0.21961
0.22941
0.24902
0.26863
0.27451
0.26471
0.2549
0.23922
0.23333
0.21961
0.13333
0.12941
0.2
0.20392
0.17451
0.13333
0.088235
0.062745
0.052941
0.084314
0.11961
0.14314
0.10392
0.12353
0.17843
0.2549
0.29412
0.30392
0.19412
0.15882
0.16471
0.17451
0.16863
0.17843
0.17451
0.18431
0.17843
0.18431
0.18824
0.18431
0.2
0.18824
0.19412
0.18431
0.19412
0.2
0.2
0.2
0.20392
0.20392
0.2098
0.20392
0.21961
0.22353
0.22941
0.22941
0.23333
0.23922
0.23922
0.2451
0.24902
0.24902
0.2549
0.25882
0.24902
0.24902
0.24902
0.24902
0.24902
0.2549
0.2451
0.23922
0.23333
0.22941
0.22941
0.22941
0.22941
0.22353
0.21961
0.22353
0.2098
0.2098
0.20392
0.20392
0.2
0.2
0.19412
0.18824
0.2
0.19412
0.2
0.19412
0.20392
0.2
0.2098
0.2098
0.21373
0.2098
0.21961
0.21373
0.22941
0.21373
0.21961
0.22353
0.21961
0.22353
0.22941
0.21373
0.22353
0.22941
0.21961
0.22353
0.22353
0.22941
0.22941
0.23922
0.23333
0.22941
0.23333
0.24902
0.24902
0.27451
0.27451
0.25882
0.24902
0.24902
0.22941
0.22941
0.2
0.11961
0.1549
0.18824
0.18431
0.16863
0.11373
0.078431
0.04902
0.039216
0.078431
0.11961
0.13922
0.084314
0.11961
0.18824
0.26471
0.29412
0.25882
0.19412
0.17843
0.17843
0.18824
0.18431
0.2
0.19412
0.2
0.18824
0.2
0.19412
0.20392
0.20392
0.20392
0.20392
0.21373
0.2098
0.21373
0.20392
0.21373
0.22353
0.2098
0.22353
0.21961
0.22941
0.22941
0.2451
0.23922
0.2451
0.24902
0.2549
0.25882
0.2549
0.25882
0.25882
0.26471
0.24902
0.24902
0.2549
0.25882
0.24902
0.24902
0.24902
0.2451
0.23922
0.22941
0.22941
0.21961
0.21373
0.21961
0.20392
0.20392
0.2
0.2
0.18824
0.19412
0.18431
0.18824
0.19412
0.18824
0.17843
0.19412
0.18431
0.18431
0.18824
0.18824
0.18824
0.2
0.20392
0.2
0.20392
0.20392
0.20392
0.20392
0.2098
0.20392
0.21373
0.20392
0.2098
0.20392
0.2098
0.2098
0.21961
0.21373
0.21961
0.22353
0.22941
0.22941
0.22941
0.22941
0.2451
0.24902
0.25882
0.2549
0.24902
0.23333
0.22941
0.21961
0.15882
0.11373
0.17451
0.19412
0.17843
0.13922
0.07451
0.033333
0.017647
0.039216
0.062745
0.1098
0.088235
0.07451
0.13333
0.21961
0.27451
0.28431
0.22353
0.17451
0.17451
0.17451
0.17451
0.17843
0.17843
0.17451
0.17843
0.17843
0.19412
0.18824
0.18824
0.17843
0.19412
0.19412
0.19412
0.19412
0.2
0.19412
0.20392
0.2
0.20392
0.20392
0.2098
0.21373
0.22353
0.22941
0.21961
0.23333
0.23922
0.2451
0.2451
0.24902
0.24902
0.24902
0.24902
0.2549
0.24902
0.24902
0.2451
0.24902
0.2451
0.23922
0.22941
0.22941
0.22941
0.22941
0.21961
0.21961
0.21373
0.21373
0.20392
0.2
0.20392
0.2
0.18824
0.18431
0.18824
0.17843
0.18431
0.18824
0.18431
0.18431
0.19412
0.18824
0.2
0.2
0.20392
0.2
0.20392
0.20392
0.2098
0.20392
0.20392
0.20392
0.20392
0.2098
0.20392
0.2098
0.20392
0.2098
0.20392
0.21373
0.2098
0.22353
0.21961
0.23333
0.22941
0.22941
0.22941
0.23333
0.23922
0.25882
0.26471
0.2549
0.23333
0.22941
0.21961
0.2
0.12353
0.16863
0.18824
0.18431
0.1549
0.1098
0.068627
0.043137
0.04902
0.078431
0.12941
0.11373
0.088235
0.13333
0.21373
0.27843
0.3
0.23922
0.17843
0.16863
0.18431
0.17843
0.18431
0.17843
0.18431
0.18824
0.17843
0.18431
0.19412
0.2
0.19412
0.19412
0.19412
0.2
0.18824
0.19412
0.18824
0.2
0.2
0.20392
0.20392
0.21373
0.2098
0.21961
0.21961
0.22941
0.22941
0.2451
0.23922
0.24902
0.2451
0.24902
0.24902
0.24902
0.2549
0.24902
0.24902
0.24902
0.2549
0.24902
0.2451
0.23333
0.23922
0.23333
0.23333
0.22941
0.22941
0.21961
0.22353
0.21373
0.2098
0.20392
0.20392
0.2
0.20392
0.2
0.19412
0.18824
0.18824
0.19412
0.19412
0.20392
0.2
0.20392
0.2
0.20392
0.20392
0.20392
0.20392
0.20392
0.20392
0.20392
0.2
0.20392
0.20392
0.21373
0.21373
0.22353
0.21373
0.22353
0.21961
0.22941
0.22941
0.23333
0.23922
0.22941
0.22941
0.22941
0.23922
0.24902
0.26863
0.27451
0.26863
0.2549
0.24902
0.23333
0.22353
0.2098
0.16863
0.12941
0.18431
0.19412
0.18824
0.15882
0.1098
0.062745
0.052941
0.058824
0.094118
0.13333
0.11373
0.088235
0.1549
0.22353
0.2902
0.3
0.23333
0.17843
0.17451
0.18824
0.17843
0.18824
0.19412
0.20392
0.20392
0.20392
0.20392
0.2098
0.20392
0.21373
0.2098
0.21373
0.2098
0.21961
0.22353
0.21961
0.22353
0.21961
0.22941
0.22353
0.22941
0.23333
0.2451
0.2451
0.24902
0.24902
0.25882
0.25882
0.26471
0.25882
0.26471
0.2549
0.26471
0.2549
0.26471
0.25882
0.25882
0.2549
0.24902
0.2451
0.2451
0.22941
0.22941
0.22353
0.22353
0.22941
0.22941
0.23922
0.23333
0.23922
0.23333
0.22941
0.22941
0.23333
0.22941
0.22941
0.22941
0.23333
0.22941
0.22941
0.22941
0.22941
0.22941
0.22941
0.22941
0.23333
0.22941
0.22941
0.23333
0.22941
0.22941
0.22941
0.23333
0.22941
0.23333
0.22941
0.22941
0.21961
0.22941
0.22941
0.23333
0.23922
0.24902
0.2451
0.23922
0.23333
0.24902
0.25882
0.27451
0.27451
0.27451
0.26471
0.25882
0.2451
0.23333
0.1549
0.14902
0.2098
0.20392
0.18431
0.12353
0.062745
0.039216
0.039216
0.062745
0.098039
0.1098
0.058824
0.07451
0.1549
0.23922
0.2902
0.29412
0.22353
0.2
0.20392
0.20392
0.20392
0.2098
0.21373
0.2098
0.2098
0.21373
0.21373
0.21961
0.21373
0.22353
0.22353
0.22941
0.22941
0.22941
0.22941
0.22941
0.22941
0.23922
0.23922
0.24902
0.24902
0.2549
0.24902
0.25882
0.26471
0.25882
0.27451
0.27451
0.27843
0.27451
0.27843
0.27843
0.27843
0.27451
0.27843
0.27451
0.27451
0.26471
0.26471
0.25882
0.26471
0.2549
0.2549
0.2451
0.23922
0.22941
0.22941
0.22353
0.21961
0.21373
0.21961
0.21373
0.2098
0.20392
0.20392
0.20392
0.2
0.20392
0.2
0.20392
0.20392
0.2098
0.20392
0.21373
0.21373
0.21961
0.21961
0.22353
0.21961
0.22353
0.21373
0.22353
0.22353
0.22353
0.22941
0.22353
0.22941
0.22941
0.22941
0.22941
0.22941
0.23922
0.24902
0.2451
0.24902
0.23333
0.24902
0.24902
0.27451
0.27451
0.27843
0.2549
0.2549
0.23333
0.21961
0.13922
0.17843
0.2098
0.2098
0.17843
0.12941
0.07451
0.052941
0.04902
0.084314
0.11373
0.13333
0.088235
0.11961
0.18824
0.26471
0.29412
0.26471
0.2098
0.18431
0.19412
0.18824
0.19412
0.18824
0.2
0.20392
0.20392
0.20392
0.20392
0.20392
0.20392
0.20392
0.20392
0.20392
0.20392
0.20392
0.20392
0.2098
0.20392
0.2098
0.21373
0.22353
0.21961
0.23333
0.23333
0.24902
0.24902
0.24902
0.24902
0.26471
0.26471
0.26863
0.26471
0.27451
0.26471
0.25882
0.26863
0.25882
0.26863
0.2549
0.2549
0.24902
0.2549
0.24902
0.23922
0.23333
0.23333
0.22941
0.22941
0.22941
0.22941
0.21373
0.21373
0.20392
0.2098
0.20392
0.2098
0.20392
0.2098
0.20392
0.2098
0.21373
0.2098
0.21373
0.2098
0.21961
0.21373
0.21961
0.21373
0.21961
0.21373
0.22353
0.21961
0.22353
0.21961
0.22353
0.21373
0.22353
0.21961
0.22353
0.22353
0.22941
0.22941
0.23333
0.23922
0.24902
0.23333
0.23333
0.24902
0.25882
0.27843
0.2902
0.27451
0.26471
0.26863
0.2549
0.23922
0.1549
0.14902
0.2098
0.21961
0.2
0.15882
0.098039
0.07451
0.058824
0.084314
0.11373
0.14314
0.10392
0.088235
0.17451
0.2549
0.29412
0.3
0.2098
0.17843
0.18824
0.18431
0.18824
0.18824
0.2
0.19412
0.20392
0.2
0.20392
0.19412
0.20392
0.2
0.2
0.19412
0.20392
0.19412
0.20392
0.19412
0.20392
0.20392
0.2098
0.21373
0.21373
0.2098
0.21373
0.21961
0.22353
0.22941
0.23333
0.24902
0.2451
0.24902
0.24902
0.24902
0.24902
0.2549
0.24902
0.24902
0.23922
0.23922
0.23333
0.23922
0.22941
0.23333
0.22941
0.22941
0.22353
0.22941
0.21373
0.2098
0.20392
0.20392
0.2098
0.20392
0.2
0.19412
0.2
0.19412
0.2
0.19412
0.2
0.2
0.20392
0.20392
0.2098
0.20392
0.21373
0.2098
0.21373
0.2098
0.21373
0.21961
0.21373
0.21961
0.21373
0.21961
0.20392
0.2098
0.20392
0.2098
0.20392
0.21373
0.2098
0.21373
0.22353
0.22941
0.21961
0.22353
0.22353
0.2451
0.24902
0.26471
0.24902
0.2451
0.22941
0.22941
0.20392
0.13922
0.11961
0.17843
0.18824
0.16863
0.12941
0.068627
0.033333
0.017647
0.04902
0.078431
0.1098
0.062745
0.052941
0.12353
0.21373
0.2549
0.26863
0.20392
0.17451
0.16863
0.17451
0.17451
0.17843
0.17843
0.17843
0.17843
0.17843
0.18431
0.17843
0.18824
0.18824
0.19412
0.18824
0.2
0.19412
0.2
0.18824
0.2
0.2
0.20392
0.20392
0.21961
0.21961
0.22941
0.22941
0.23333
0.23922
0.23922
0.22941
0.23333
0.23922
0.2451
0.23922
0.2451
0.24902
0.2451
0.23922
0.23922
0.2451
0.22941
0.23333
0.22941
0.22941
0.21961
0.22353
0.21373
0.21961
0.21373
0.21961
0.20392
0.2098
0.2
0.2
0.18824
0.2
0.18824
0.19412
0.18431
0.18431
0.18824
0.18431
0.18824
0.18824
0.2
0.2
0.20392
0.2
0.2098
0.20392
0.2098
0.18431
0.16471
0.12353
0.1098
0.19412
0.22353
0.21961
0.17843
0.078431
-0.0019608
-0.0058824
0.043137
0.11961
0.17843
0.21961
0.23922
0.24902
0.26471
0.27451
0.2902
0.3
0.3
0.29412
0.27843
0.27451
0.25882
0.26471
0.24902
0.24902
0.2451
0.24902
0.2451
0.24902
0.24902
0.2549
0.25882
0.26863
0.27451
0.26863
0.27843
0.27451
0.28431
0.27843
0.28431
0.27451
0.28431
0.27843
0.28431
0.27451
0.26471
0.25882
0.2549
0.2451
0.23922
0.22941
0.22353
0.20392
0.20392
0.18824
0.18824
0.17843
0.17451
0.16471
0.15882
0.16471
0.16471
0.16863
0.15882
0.16863
0.16471
0.17843
0.17843
0.18431
0.18431
0.19412
0.19412
0.2
0.2
0.20392
0.2
0.20392
0.20392
0.20392
0.20392
0.2098
0.2098
0.2098
0.21373
0.2098
0.2098
0.20392
0.2098
0.21373
0.21961
0.2098
0.21373
0.2098
0.21373
0.2098
0.21373
0.2098
0.21373
0.2098
0.21961
0.2098
0.21961
0.2098
0.21373
0.21373
0.21961
0.21373
0.21961
0.22353
0.21961
0.22353
0.21373
0.22353
0.21373
0.22353
0.22353
0.22941
0.22353
0.22353
0.21961
0.22353
0.21961
0.22941
0.21961
0.22353
0.22941
0.23333
0.23333
0.2451
0.23922
0.23333
0.23333
0.24902
0.2549
0.26863
0.27451
0.26471
0.24902
0.23922
0.22941
0.2098
0.13333
0.17451
0.20392
0.2
0.16863
0.11373
0.07451
0.04902
0.058824
0.088235
0.13922
0.11373
0.088235
0.14314
0.21961
0.26863
0.27843
0.22353
0.16471
0.15882
0.16471
0.16863
0.17451
0.17843
0.17843
0.18431
0.18431
0.18824
0.18431
0.2
0.18824
0.19412
0.18824
0.2
0.19412
0.20392
0.2
0.20392
0.20392
0.20392
0.20392
0.21373
0.22353
0.22353
0.22941
0.22941
0.23333
0.22941
0.23333
0.23333
0.2451
0.24902
0.24902
0.2451
0.24902
0.2451
0.24902
0.2451
0.24902
0.23333
0.2451
0.22941
0.23922
0.23333
0.22941
0.23333
0.22941
0.22941
0.22941
0.21961
0.21373
0.2098
0.20392
0.20392
0.20392
0.20392
0.20392
0.2
0.19412
0.20392
0.2
0.20392
0.2
0.20392
0.2
0.20392
0.20392
0.21373
0.2098
0.21373
0.2098
0.21373
0.2098
0.21373
0.2098
0.2098
0.21373
0.2098
0.21961
0.2098
0.22353
0.22941
0.22941
0.23922
0.24902
0.2451
0.23333
0.23333
0.24902
0.25882
0.27451
0.27451
0.27451
0.24902
0.2451
0.22941
0.2098
0.13333
0.17843
0.20392
0.20392
0.17451
0.11961
0.07451
0.052941
0.04902
0.078431
0.11373
0.12941
0.084314
0.12353
0.19412
0.25882
0.28431
0.23922
0.17843
0.16471
0.17451
0.16863
0.17451
0.16863
0.17451
0.16863
0.17843
0.17843
0.17451
0.17843
0.17451
0.17843
0.17843
0.18431
0.17843
0.18824
0.18824
0.2
0.20392
0.20392
0.20392
0.22353
0.22941
0.22941
0.22941
0.23922
0.2451
0.23922
0.24902
0.2549
0.24902
0.24902
0.2549
0.25882
0.24902
0.2549
0.25882
0.2549
0.25882
0.24902
0.2549
0.24902
0.2451
0.23333
0.23333
0.22941
0.22353
0.21961
0.21961
0.20392
0.2098
0.2
0.2
0.18824
0.19412
0.17843
0.17843
0.17843
0.18431
0.18824
0.18431
0.19412
0.18824
0.19412
0.18824
0.20392
0.20392
0.2098
0.20392
0.20392
0.20392
0.20392
0.20392
0.20392
0.20392
0.20392
0.20392
0.20392
0.2
0.20392
0.20392
0.20392
0.2098
0.21961
0.22353
0.22941
0.21961
0.21373
0.22941
0.23922
0.24902
0.24902
0.2451
0.22941
0.22941
0.21961
0.17451
0.11373
0.16471
0.17843
0.18431
0.13922
0.07451
0.013725
-0.0019608
0.0078431
0.04902
0.078431
0.058824
0.023529
0.078431
0.15882
0.23333
0.27451
0.23333
0.18431
0.17451
0.18431
0.17843
0.18824
0.18824
0.20392
0.19412
0.20392
0.20392
0.20392
0.20392
0.21373
0.21961
0.22353
0.21961
0.22353
0.22941
0.22941
0.23333
0.22941
0.23333
0.22941
0.23333
0.22941
0.23922
0.23922
0.24902
0.2451
0.24902
0.24902
0.2549
0.24902
0.24902
0.24902
0.2549
0.24902
0.2549
0.24902
0.24902
0.2451
0.24902
0.23333
0.22941
0.22353
0.22353
0.21373
0.2098
0.2098
0.2451
0.23333
0.20392
0.18431
0.16863
0.16863
0.16471
0.16863
0.16863
0.17451
0.16471
0.17451
0.16863
0.17843
0.17843
0.17843
0.17843
0.18431
0.18431
0.18824
0.19412
0.19412
0.2
0.19412
0.2
0.19412
0.20392
0.20392
0.20392
0.2
0.20392
0.20392
0.2098
0.2098
0.2098
0.2098
0.22353
0.21961
0.22353
0.2098
0.21961
0.22941
0.24902
0.24902
0.24902
0.22941
0.22941
0.21961
0.2098
0.12941
0.12353
0.17843
0.18431
0.16863
0.11961
0.068627
0.033333
0.029412
0.052941
0.088235
0.1098
0.07451
0.062745
0.14314
0.21961
0.26863
0.27451
0.20392
0.16471
0.17843
0.17451
0.16863
0.17843
0.17451
0.18431
0.17843
0.18824
0.18431
0.19412
0.18824
0.19412
0.18824
0.2
0.19412
0.2
0.19412
0.2
0.2
0.20392
0.20392
0.21373
0.21373
0.22353
0.22941
0.23333
0.23922
0.24902
0.2451
0.24902
0.24902
0.24902
0.2549
0.24902
0.25882
0.24902
0.24902
0.24902
0.2451
0.23333
0.23922
0.22941
0.23333
0.22941
0.22941
0.22353
0.22353
0.21373
0.21373
0.20392
0.2098
0.20392
0.20392
0.20392
0.2
0.19412
0.18431
0.17843
0.17843
0.18431
0.17843
0.18824
0.18431
0.19412
0.18824
0.2
0.19412
0.20392
0.2
0.20392
0.2
0.20392
0.20392
0.2098
0.20392
0.21373
0.20392
0.21373
0.2098
0.2098
0.21373
0.21961
0.22353
0.22941
0.22941
0.22941
0.22353
0.21961
0.23333
0.2451
0.26863
0.26863
0.26471
0.24902
0.24902
0.22941
0.21373
0.12941
0.16863
0.19412
0.19412
0.16863
0.12353
0.068627
0.039216
0.039216
0.068627
0.1098
0.12353
0.07451
0.1098
0.17451
0.2549
0.28431
0.2549
0.19412
0.16863
0.17843
0.17843
0.18431
0.17843
0.18824
0.17843
0.18824
0.18431
0.18824
0.18431
0.19412
0.18824
0.19412
0.18824
0.2
0.2
0.20392
0.20392
0.20392
0.2098
0.2098
0.21373
0.21373
0.22353
0.22353
0.23922
0.23333
0.2451
0.2451
0.24902
0.24902
0.2549
0.24902
0.2549
0.24902
0.2549
0.24902
0.24902
0.2451
0.24902
0.23922
0.23333
0.23922
0.22941
0.22353
0.21373
0.21961
0.20392
0.20392
0.2
0.20392
0.19412
0.19412
0.18824
0.18824
0.18431
0.18824
0.18431
0.18824
0.17843
0.18824
0.18431
0.19412
0.19412
0.2
0.20392
0.2
0.20392
0.20392
0.20392
0.20392
0.20392
0.20392
0.2098
0.20392
0.20392
0.20392
0.2098
0.20392
0.2098
0.2098
0.21961
0.21373
0.22941
0.22941
0.23333
0.22941
0.22941
0.23922
0.2549
0.27451
0.27451
0.26471
0.24902
0.24902
0.23333
0.18824
0.13333
0.18431
0.20392
0.2
0.16471
0.11373
0.058824
0.039216
0.033333
0.078431
0.11373
0.11961
0.062745
0.1098
0.17451
0.24902
0.27451
0.2451
0.18431
0.17451
0.17843
0.17843
0.18431
0.17843
0.18824
0.19412
0.2
0.2
0.20392
0.2
0.20392
0.20392
0.20392
0.20392
0.20392
0.20392
0.21373
0.21373
0.22941
0.22353
0.22941
0.22941
0.2451
0.2451
0.23922
0.2549
0.24902
0.25882
0.2549
0.26863
0.25882
0.26863
0.26471
0.26863
0.25882
0.26863
0.25882
0.25882
0.24902
0.2549
0.24902
0.24902
0.2451
0.2451
0.23333
0.22941
0.23333
0.22941
0.21961
0.21961
0.21373
0.2098
0.20392
0.20392
0.20392
0.2
0.20392
0.19412
0.20392
0.19412
0.2
0.2
0.20392
0.20392
0.20392
0.20392
0.2098
0.2098
0.21373
0.2098
0.21961
0.21373
0.21961
0.21961
0.22353
0.22353
0.22941
0.22353
0.22353
0.22941
0.21961
0.22353
0.22353
0.23922
0.23922
0.2451
0.23922
0.2451
0.23922
0.2549
0.26471
0.27451
0.26471
0.25882
0.2451
0.2451
0.21373
0.13333
0.17451
0.20392
0.2
0.16863
0.1098
0.04902
0.023529
0.013725
0.058824
0.094118
0.11373
0.058824
0.094118
0.15882
0.2451
0.28431
0.2902
0.20392
0.18824
0.2
0.20392
0.20392
0.20392
0.20392
0.20392
0.20392
0.20392
0.20392
0.20392
0.20392
0.20392
0.2098
0.20392
0.21373
0.2098
0.21961
0.21961
0.22353
0.22353
0.22941
0.22941
0.2451
0.2451
0.24902
0.24902
0.25882
0.25882
0.26863
0.27451
0.27451
0.27451
0.27843
0.28431
0.27451
0.27843
0.27451
0.27451
0.26863
0.26471
0.2549
0.25882
0.24902
0.24902
0.2451
0.2451
0.23333
0.23922
0.22941
0.22941
0.22353
0.22941
0.21961
0.22353
0.21373
0.21961
0.2098
0.21373
0.21373
0.22353
0.21961
0.22353
0.22941
0.22941
0.22941
0.22353
0.22941
0.21961
0.22353
0.21373
0.21961
0.21373
0.22353
0.21373
0.21961
0.21373
0.21961
0.21961
0.22941
0.21373
0.21961
0.22941
0.22353
0.22941
0.23333
0.23922
0.22941
0.23333
0.22941
0.24902
0.26863
0.27451
0.2549
0.24902
0.23922
0.22941
0.16863
0.11961
0.16863
0.2
0.18431
0.15882
0.094118
0.04902
0.029412
0.017647
0.062745
0.10392
0.084314
0.052941
0.098039
0.16863
0.2451
0.26471
0.21961
0.16863
0.15882
0.16471
0.17451
0.16863
0.17843
0.18431
0.2
0.19412
0.20392
0.20392
0.20392
0.20392
0.2098
0.20392
0.20392
0.2098
0.21373
0.21961
0.21373
0.22941
0.22941
0.22941
0.22941
0.23922
0.23333
0.2451
0.24902
0.2549
0.25882
0.26863
0.26863
0.27451
0.27451
0.27451
0.27451
0.27451
0.27451
0.27451
0.27451
0.27451
0.26863
0.26863
0.25882
0.2549
0.24902
0.2451
0.23333
0.22941
0.23333
0.22941
0.22353
0.21373
0.21373
0.2098
0.20392
0.20392
0.20392
0.19412
0.19412
0.18431
0.19412
0.19412
0.20392
0.20392
0.2098
0.21373
0.2098
0.21373
0.21373
0.2098
0.21373
0.21961
0.21373
0.22353
0.21373
0.21961
0.21373
0.22353
0.22353
0.22941
0.22941
0.22941
0.22941
0.22941
0.22941
0.24902
0.23922
0.23922
0.23333
0.24902
0.25882
0.27843
0.28431
0.26863
0.2549
0.24902
0.23922
0.21373
0.13922
0.17451
0.2098
0.2
0.17451
0.11373
0.068627
0.039216
0.039216
0.07451
0.11961
0.12353
0.078431
0.11373
0.18824
0.25882
0.2902
0.2451
0.19412
0.17843
0.18431
0.18824
0.18431
0.19412
0.19412
0.2
0.20392
0.2098
0.20392
0.2098
0.2098
0.21373
0.2098
0.21373
0.2098
0.2098
0.2098
0.21373
0.21373
0.22353
0.22941
0.22941
0.23333
0.2451
0.24902
0.2451
0.24902
0.24902
0.2549
0.2549
0.25882
0.26471
0.26863
0.26863
0.27451
0.26471
0.26471
0.2549
0.25882
0.24902
0.24902
0.2451
0.2451
0.23333
0.23922
0.22941
0.22941
0.21961
0.21961
0.2098
0.2098
0.20392
0.20392
0.2
0.2
0.19412
0.2
0.20392
0.19412
0.20392
0.2
0.20392
0.2
0.20392
0.2
0.20392
0.20392
0.2098
0.20392
0.2098
0.2098
0.21373
0.2098
0.21373
0.20392
0.2098
0.20392
0.2098
0.21373
0.2098
0.21373
0.2098
0.21961
0.21373
0.22941
0.22941
0.23333
0.22941
0.23333
0.2451
0.26863
0.26863
0.25882
0.24902
0.24902
0.23333
0.21373
0.11961
0.15882
0.2
0.2
0.16471
0.1098
0.043137
0.013725
0.013725
0.043137
0.068627
0.084314
0.033333
0.023529
0.12353
0.21373
0.26471
0.26863
0.19412
0.16471
0.18431
0.17843
0.18431
0.17843
0.18431
0.18431
0.18824
0.18431
0.18824
0.18824
0.19412
0.18824
0.18824
0.19412
0.19412
0.20392
0.2
0.20392
0.20392
0.2098
0.2098
0.21961
0.22353
0.22941
0.22941
0.23333
0.23333
0.24902
0.23922
0.24902
0.24902
0.2549
0.24902
0.24902
0.2549
0.24902
0.2549
0.24902
0.2451
0.2451
0.23922
0.23333
0.22941
0.22941
0.22941
0.21961
0.21373
0.20392
0.2
0.18824
0.19412
0.18824
0.19412
0.17843
0.18431
0.17843
0.17843
0.17451
0.17843
0.17843
0.18431
0.18431
0.18431
0.18824
0.18431
0.18824
0.18431
0.19412
0.18431
0.2
0.19412
0.20392
0.2
0.2
0.19412
0.2
0.18824
0.2
0.19412
0.19412
0.19412
0.20392
0.20392
0.2098
0.21961
0.21373
0.22353
0.2098
0.21961
0.22941
0.24902
0.2549
0.24902
0.23333
0.23922
0.22353
0.20392
0.12353
0.10392
0.17843
0.18431
0.16863
0.12353
0.058824
0.023529
0.0078431
0.043137
0.068627
0.10392
0.058824
0.052941
0.12941
0.21373
0.2549
0.26471
0.2098
0.15882
0.16471
0.16863
0.16863
0.17451
0.17843
0.17451
0.17843
0.17843
0.18824
0.18431
0.18824
0.18824
0.19412
0.18431
0.18824
0.19412
0.2
0.19412
0.20392
0.20392
0.21373
0.21373
0.21961
0.21373
0.21373
0.22353
0.22941
0.23333
0.22941
0.24902
0.2451
0.24902
0.24902
0.24902
0.24902
0.25882
0.24902
0.2549
0.24902
0.24902
0.23333
0.23922
0.23922
0.2451
0.22353
0.22941
0.21961
0.21373
0.2098
0.21373
0.20392
0.2
0.20392
0.19412
0.2
0.18431
0.18431
0.17451
0.18431
0.17843
0.17843
0.17843
0.18824
0.17451
0.18431
0.17843
0.18824
0.17843
0.2
0.20392
0.20392
0.2
0.2
0.19412
0.20392
0.19412
0.18824
0.20392
0.20392
0.2
0.20392
0.2098
0.2098
0.2098
0.21961
0.22941
0.21373
0.21961
0.22941
0.23333
0.24902
0.25882
0.2451
0.23333
0.22353
0.21373
0.18824
0.1098
0.14902
0.18431
0.17843
0.16471
0.11961
0.058824
0.039216
0.039216
0.07451
0.1098
0.12941
0.088235
0.084314
0.16863
0.26471
0.29412
0.2451
0.16471
0.14314
0.14902
0.14314
0.1549
0.1549
0.1549
0.1549
0.16863
0.17451
0.17843
0.17451
0.17451
0.17451
0.16863
0.17451
0.17843
0.17843
0.18824
0.16863
0.17843
0.19412
0.2
0.17843
0.20392
0.2
0.21373
0.22353
0.21961
0.20392
0.22941
0.23922
0.26471
0.2451
0.22941
0.23922
0.23922
0.2549
0.26471
0.24902
0.23333
0.23333
0.23922
0.24902
0.23333
0.23922
0.22941
0.22353
0.20392
0.2098
0.2
0.19412
0.2
0.20392
0.20392
0.20392
0.18824
0.20392
0.18824
0.18431
0.19412
0.19412
0.2
0.19412
0.20392
0.19412
0.2098
0.21373
0.20392
0.20392
0.21961
0.22353
0.21373
0.22941
0.21961
0.22353
0.22941
0.21373
0.22353
0.22941
0.22353
0.22941
0.22941
0.21961
0.21373
0.23333
0.23922
0.22941
0.22941
0.22941
0.23922
0.2549
0.26471
0.27451
0.25882
0.2451
0.22941
0.22941
0.18431
0.14314
0.17843
0.20392
0.18431
0.16863
0.11961
0.084314
0.068627
0.062745
0.1098
0.1549
0.16471
0.1098
0.15882
0.22941
0.28431
0.30392
0.26471
0.18824
0.17843
0.16863
0.17843
0.18431
0.18824
0.18431
0.18431
0.18431
0.2
0.19412
0.20392
0.2
0.2098
0.19412
0.19412
0.20392
0.20392
0.19412
0.2098
0.2098
0.20392
0.22353
0.22941
0.2451
0.22941
0.2451
0.22941
0.24902
0.2451
0.24902
0.2549
0.26471
0.2549
0.25882
0.26471
0.2549
0.24902
0.24902
0.24902
0.2549
0.2549
0.2549
0.24902
0.25882
0.22941
0.22941
0.23333
0.22941
0.22941
0.21961
0.21373
0.21373
0.20392
0.19412
0.20392
0.20392
0.2
0.20392
0.2
0.18431
0.20392
0.19412
0.2
0.19412
0.20392
0.20392
0.2
0.2098
0.20392
0.2
0.19412
0.20392
0.2
0.20392
0.2
0.20392
0.19412
0.2098
0.20392
0.2098
0.21373
0.20392
0.21961
0.2098
0.21961
0.22353
0.22941
0.23333
0.22941
0.22941
0.22941
0.2549
0.26471
0.25882
0.2451
0.23333
0.22941
0.22353
0.14902
0.13922
0.18824
0.19412
0.17843
0.12941
0.078431
0.04902
0.052941
0.062745
0.10392
0.12941
0.098039
0.084314
0.16863
0.23922
0.30392
0.31373
0.21961
0.17843
0.18824
0.17843
0.17451
0.17843
0.17843
0.18431
0.18824
0.18824
0.18431
0.18824
0.17843
0.18431
0.18824
0.18431
0.2
0.18824
0.19412
0.2
0.19412
0.2
0.20392
0.2
0.21373
0.21961
0.22941
0.23333
0.2451
0.23333
0.24902
0.2549
0.24902
0.2549
0.25882
0.24902
0.24902
0.24902
0.25882
0.24902
0.2549
0.2451
0.24902
0.24902
0.2451
0.22941
0.22941
0.22353
0.22353
0.22941
0.22941
0.21961
0.22941
0.21373
0.20392
0.21373
0.2098
0.21961
0.2098
0.21373
0.20392
0.2098
0.21373
0.2098
0.2098
0.21961
0.21373
0.22353
0.21373
0.22353
0.21961
0.22941
0.21961
0.21961
0.22941
0.23922
0.22353
0.22941
0.2451
0.23922
0.23333
0.22941
0.23333
0.22941
0.23922
0.23333
0.24902
0.24902
0.2451
0.23333
0.24902
0.25882
0.28431
0.2902
0.28431
0.26863
0.26863
0.24902
0.2451
0.16471
0.15882
0.21961
0.21373
0.19412
0.14902
0.10392
0.084314
0.078431
0.1098
0.13922
0.15882
0.12353
0.11373
0.21373
0.28431
0.31961
0.2902
0.21373
0.17843
0.19412
0.18431
0.18824
0.17843
0.18431
0.18824
0.18824
0.19412
0.18824
0.20392
0.2
0.20392
0.2
0.20392
0.2
0.20392
0.20392
0.20392
0.20392
0.2098
0.20392
0.21961
0.21961
0.22941
0.22941
0.24902
0.23922
0.24902
0.24902
0.2549
0.24902
0.24902
0.2549
0.2549
0.25882
0.2549
0.25882
0.2549
0.24902
0.24902
0.24902
0.24902
0.2451
0.23922
0.22941
0.22353
0.22941
0.21373
0.21373
0.2098
0.2098
0.20392
0.2
0.20392
0.2
0.19412
0.19412
0.18824
0.19412
0.19412
0.18824
0.2
0.19412
0.2
0.20392
0.20392
0.20392
0.20392
0.2
0.20392
0.20392
0.20392
0.20392
0.20392
0.2
0.20392
0.2
0.20392
0.20392
0.21373
0.2098
0.21961
0.22353
0.21961
0.22941
0.23333
0.22941
0.22353
0.22941
0.2451
0.2549
0.26471
0.27451
0.24902
0.24902
0.23333
0.22941
0.14902
0.12353
0.18431
0.19412
0.17451
0.14314
0.088235
0.062745
0.043137
0.07451
0.1098
0.13922
0.098039
0.084314
0.16471
0.23922
0.28431
0.2902
0.20392
0.1549
0.16471
0.15882
0.17451
0.17843
0.17843
0.17843
0.17843
0.17843
0.18431
0.17843
0.18824
0.18431
0.18824
0.18431
0.19412
0.19412
0.2
0.19412
0.2
0.20392
0.20392
0.2098
0.21373
0.22353
0.21961
0.22941
0.22941
0.23333
0.23333
0.2451
0.2451
0.24902
0.2451
0.2549
0.24902
0.24902
0.24902
0.2549
0.24902
0.24902
0.2451
0.23922
0.23333
0.23922
0.22941
0.22941
0.21961
0.21961
0.21373
0.21373
0.21373
0.20392
0.2098
0.20392
0.20392
0.20392
0.20392
0.2
0.2
0.19412
0.20392
0.2
0.20392
0.20392
0.20392
0.20392
0.20392
0.2098
0.21373
0.21373
0.21961
0.22353
0.21373
0.21961
0.21373
0.22353
0.21373
0.22353
0.21961
0.21961
0.21373
0.22353
0.21961
0.22941
0.23333
0.2451
0.22941
0.22941
0.22941
0.24902
0.25882
0.27451
0.25882
0.24902
0.2451
0.23333
0.21961
0.13333
0.12941
0.2
0.20392
0.18431
0.12941
0.068627
0.039216
0.033333
0.062745
0.088235
0.11961
0.07451
0.068627
0.14314
0.23333
0.27451
0.28431
0.2098
0.18431
0.18824
0.2
0.19412
0.2
0.19412
0.2
0.20392
0.2
0.20392
0.20392
0.21373
0.2098
0.21373
0.2098
0.21373
0.21373
0.22353
0.21961
0.22353
0.21961
0.22941
0.22941
0.23922
0.23922
0.24902
0.24902
0.2549
0.25882
0.24902
0.26471
0.25882
0.26863
0.25882
0.26471
0.26863
0.27451
0.26863
0.27451
0.25882
0.25882
0.2549
0.25882
0.24902
0.24902
0.23333
0.23922
0.22941
0.22941
0.22353
0.22353
0.21373
0.2098
0.20392
0.21373
0.20392
0.2
0.20392
0.2
0.20392
0.2
0.20392
0.19412
0.20392
0.20392
0.2098
0.20392
0.2098
0.20392
0.21961
0.2098
0.21961
0.2098
0.21961
0.2098
0.21961
0.21373
0.2098
0.21961
0.21373
0.2098
0.21373
0.22353
0.22941
0.22941
0.23922
0.2451
0.23922
0.23333
0.23333
0.24902
0.25882
0.27451
0.27451
0.25882
0.24902
0.24902
0.22941
0.16471
0.13922
0.19412
0.2
0.18431
0.14314
0.088235
0.043137
0.039216
0.058824
0.098039
0.13333
0.10392
0.084314
0.1549
0.23333
0.2902
0.3
0.23922
0.18824
0.19412
0.20392
0.18824
0.2
0.19412
0.2
0.2
0.20392
0.2
0.20392
0.20392
0.20392
0.20392
0.20392
0.2098
0.20392
0.21373
0.2098
0.21961
0.21373
0.21961
0.22353
0.22941
0.22941
0.23333
0.23922
0.24902
0.24902
0.25882
0.26471
0.25882
0.25882
0.26471
0.25882
0.2549
0.25882
0.26471
0.2549
0.24902
0.2549
0.24902
0.25882
0.24902
0.2451
0.23922
0.2451
0.23922
0.2451
0.22941
0.22353
0.21961
0.21961
0.21373
0.21373
0.21373
0.21373
0.20392
0.21373
0.20392
0.2098
0.2098
0.21373
0.2098
0.21373
0.21373
0.21373
0.2098
0.21373
0.21961
0.21373
0.22353
0.21961
0.22353
0.21373
0.22353
0.22353
0.22941
0.21961
0.22941
0.22353
0.22941
0.22941
0.23333
0.22941
0.2451
0.2451
0.23922
0.22941
0.23922
0.24902
0.26863
0.28431
0.27451
0.26471
0.2549
0.2451
0.23333
0.16471
0.14314
0.20392
0.2098
0.2
0.15882
0.10392
0.062745
0.052941
0.068627
0.10392
0.13922
0.11373
0.098039
0.17451
0.23922
0.29412
0.3
0.22353
0.17843
0.17843
0.18431
0.18431
0.18824
0.18824
0.19412
0.18824
0.19412
0.19412
0.20392
0.2
0.20392
0.2
0.20392
0.20392
0.20392
0.20392
0.2098
0.20392
0.2098
0.21373
0.21961
0.22353
0.22941
0.22941
0.23333
0.2451
0.23922
0.24902
0.2451
0.24902
0.24902
0.2549
0.24902
0.2549
0.24902
0.2549
0.24902
0.24902
0.24902
0.24902
0.2451
0.2451
0.23333
0.23333
0.22941
0.22941
0.22353
0.22353
0.2098
0.2098
0.21373
0.20392
0.20392
0.2
0.20392
0.19412
0.20392
0.19412
0.2
0.19412
0.2
0.19412
0.20392
0.20392
0.2098
0.20392
0.2098
0.2098
0.21373
0.20392
0.2098
0.21373
0.21373
0.21961
0.2098
0.21373
0.2098
0.21373
0.20392
0.21373
0.21961
0.22353
0.22353
0.23922
0.23333
0.22941
0.22941
0.23333
0.2451
0.25882
0.26863
0.26471
0.24902
0.24902
0.23333
0.22941
0.13922
0.13333
0.20392
0.20392
0.18431
0.13922
0.088235
0.062745
0.04902
0.07451
0.1098
0.12941
0.094118
0.084314
0.17451
0.2451
0.2902
0.26471
0.2
0.16471
0.17451
0.17451
0.17843
0.17451
0.17843
0.17843
0.17843
0.17843
0.18824
0.19412
0.18824
0.19412
0.18824
0.19412
0.18824
0.2
0.19412
0.20392
0.2
0.2098
0.20392
0.21373
0.21961
0.22941
0.22941
0.2451
0.2451
0.24902
0.24902
0.24902
0.2549
0.2549
0.24902
0.24902
0.2549
0.24902
0.25882
0.24902
0.24902
0.24902
0.2451
0.2451
0.23922
0.22941
0.22353
0.21373
0.21373
0.20392
0.20392
0.2
0.2
0.18824
0.18824
0.18431
0.17843
0.18431
0.17843
0.18824
0.17843
0.18431
0.17843
0.18824
0.19412
0.2
0.2
0.20392
0.2
0.2098
0.20392
0.20392
0.20392
0.20392
0.2
0.20392
0.20392
0.20392
0.2
0.20392
0.2
0.20392
0.20392
0.21373
0.21961
0.21373
0.22941
0.23333
0.22353
0.21961
0.22941
0.2451
0.25882
0.26471
0.2549
0.23922
0.23333
0.21961
0.19412
0.11373
0.15882
0.18431
0.17843
0.14902
0.094118
0.033333
0.013725
0.013725
0.058824
0.084314
0.098039
0.043137
0.088235
0.15882
0.23922
0.27451
0.2549
0.2
0.17843
0.18431
0.17843
0.19412
0.19412
0.2
0.19412
0.20392
0.2
0.20392
0.2
0.20392
0.2
0.20392
0.2
0.20392
0.20392
0.20392
0.20392
0.2098
0.21373
0.21961
0.22941
0.22941
0.22941
0.23333
0.23922
0.2451
0.24902
0.24902
0.2549
0.24902
0.2549
0.25882
0.25882
0.24902
0.2549
0.24902
0.24902
0.2451
0.24902
0.23922
0.23333
0.23922
0.22353
0.22941
0.21961
0.22353
0.21373
0.2098
0.20392
0.20392
0.2
0.20392
0.18824
0.18824
0.17843
0.18431
0.17843
0.18431
0.18431
0.18824
0.18431
0.19412
0.18824
0.19412
0.19412
0.2
0.19412
0.19412
0.20392
0.2
0.20392
0.2
0.20392
0.2
0.20392
0.20392
0.20392
0.2
0.20392
0.2
0.20392
0.2098
0.22353
0.21961
0.22353
0.2098
0.22941
0.23922
0.25882
0.26471
0.2549
0.2451
0.23922
0.22941
0.21961
0.14314
0.13333
0.19412
0.18431
0.16863
0.11961
0.062745
0.033333
0.033333
0.058824
0.098039
0.11961
0.07451
0.098039
0.16863
0.23922
0.27843
0.28431
0.2
0.16863
0.17843
0.17843
0.17843
0.18431
0.17843
0.18824
0.19412
0.20392
0.2
0.20392
0.19412
0.20392
0.2
0.20392
0.2
0.20392
0.2
0.20392
0.2
0.2098
0.2098
0.21961
0.21961
0.22941
0.22941
0.23922
0.23333
0.23333
0.2451
0.24902
0.24902
0.24902
0.24902
0.24902
0.2549
0.24902
0.2549
0.24902
0.2451
0.23922
0.2451
0.22941
0.23333
0.22353
0.22353
0.21373
0.21961
0.20392
0.20392
0.20392
0.20392
0.19412
0.19412
0.2
0.18824
0.19412
0.2
0.20392
0.19412
0.2
0.19412
0.2
0.19412
0.20392
0.2
0.2098
0.20392
0.2098
0.20392
0.21373
0.2098
0.21373
0.2098
0.21373
0.2098
0.21373
0.21373
0.21373
0.21373
0.21373
0.21373
0.22353
0.22941
0.23333
0.23922
0.22941
0.22353
0.22941
0.2451
0.24902
0.27451
0.27451
0.25882
0.24902
0.23922
0.22353
0.17843
0.13333
0.18431
0.2
0.19412
0.15882
0.11373
0.062745
0.043137
0.043137
0.084314
0.12941
0.10392
0.084314
0.13922
0.21373
0.27451
0.28431
0.22941
0.17451
0.16863
0.17843
0.17451
0.18431
0.18431
0.18824
0.18431
0.19412
0.19412
0.20392
0.20392
0.2098
0.20392
0.2
0.20392
0.20392
0.2098
0.20392
0.21373
0.2098
0.21373
0.21373
0.22353
0.21961
0.22941
0.22941
0.2451
0.23922
0.24902
0.24902
0.2549
0.24902
0.25882
0.2549
0.25882
0.24902
0.2549
0.24902
0.24902
0.2451
0.2451
0.23922
0.23922
0.2451
0.22941
0.22941
0.22353
0.21961
0.21961
0.21373
0.20392
0.20392
0.2
0.20392
0.19412
0.19412
0.2
0.18824
0.18431
0.19412
0.18824
0.19412
0.18824
0.19412
0.2
0.19412
0.20392
0.2
0.20392
0.2
0.20392
0.20392
0.2098
0.20392
0.2098
0.20392
0.2098
0.2098
0.21373
0.2098
0.21373
0.21373
0.21961
0.21961
0.23333
0.22941
0.23333
0.22941
0.22941
0.2451
0.25882
0.26863
0.26863
0.2549
0.2451
0.24902
0.22941
0.15882
0.13333
0.19412
0.2
0.18824
0.14314
0.084314
0.039216
0.033333
0.043137
0.084314
0.11961
0.084314
0.058824
0.12353
0.2
0.25882
0.27843
0.23333
0.18431
0.17843
0.18824
0.17843
0.19412
0.18824
0.2
0.19412
0.20392
0.2
0.20392
0.20392
0.20392
0.2
0.20392
0.20392
0.20392
0.20392
0.2098
0.20392
0.21373
0.21961
0.21373
0.22941
0.22941
0.22941
0.23922
0.24902
0.24902
0.24902
0.2549
0.25882
0.25882
0.26863
0.26471
0.26863
0.25882
0.26471
0.25882
0.26471
0.24902
0.24902
0.2451
0.24902
0.2451
0.23922
0.22941
0.22941
0.21961
0.21373
0.20392
0.20392
0.20392
0.20392
0.2
0.19412
0.18824
0.18431
0.18824
0.17843
0.18824
0.18431
0.19412
0.19412
0.2
0.2
0.20392
0.20392
0.20392
0.20392
0.20392
0.20392
0.20392
0.2098
0.20392
0.2098
0.20392
0.20392
0.20392
0.20392
0.20392
0.20392
0.20392
0.21373
0.2098
0.22941
0.22941
0.22941
0.22353
0.23333
0.23922
0.24902
0.25882
0.26471
0.2451
0.2451
0.22941
0.22353
0.14314
0.11961
0.18824
0.2
0.17843
0.13333
0.062745
0.029412
0.017647
0.043137
0.078431
0.1098
0.07451
0.062745
0.13333
0.2098
0.26471
0.27451
0.21961
0.17451
0.18431
0.17843
0.18431
0.17843
0.18824
0.19412
0.2
0.19412
0.2
0.2
0.2
0.2
0.19412
0.20392
0.20392
0.20392
0.20392
0.21373
0.2098
0.21961
0.22353
0.22941
0.22941
0.2451
0.23922
0.24902
0.2451
0.24902
0.2549
0.25882
0.26471
0.25882
0.26471
0.26863
0.26863
0.26471
0.26863
0.2549
0.26471
0.24902
0.2549
0.24902
0.24902
0.23922
0.2451
0.22941
0.22941
0.22353
0.22353
0.21373
0.21373
0.20392
0.20392
0.2
0.2
0.18824
0.18431
0.19412
0.18431
0.18824
0.18431
0.18824
0.18431
0.2
0.19412
0.20392
0.20392
0.2098
0.20392
0.2098
0.20392
0.20392
0.20392
0.2098
0.20392
0.2098
0.2098
0.21373
0.2098
0.2098
0.20392
0.21373
0.21961
0.21373
0.22941
0.22353
0.21961
0.21373
0.22941
0.2451
0.25882
0.25882
0.24902
0.23922
0.23333
0.22353
0.2098
0.12353
0.16471
0.18824
0.19412
0.15882
0.11373
0.058824
0.039216
0.039216
0.078431
0.11373
0.12941
0.07451
0.11961
0.18824
0.2549
0.27843
0.23922
0.17843
0.15882
0.17843
0.17451
0.17843
0.17843
0.17843
0.17843
0.19412
0.18824
0.19412
0.18824
0.19412
0.2
0.19412
0.19412
0.20392
0.20392
0.2
0.20392
0.2
0.20392
0.2098
0.21961
0.22353
0.22941
0.22941
0.23922
0.23922
0.2451
0.2451
0.24902
0.24902
0.2549
0.24902
0.2549
0.24902
0.24902
0.2451
0.24902
0.2451
0.2451
0.23922
0.23922
0.22941
0.22941
0.22353
0.21961
0.22353
0.2098
0.21373
0.20392
0.20392
0.2
0.2
0.18824
0.19412
0.18431
0.18824
0.18431
0.18824
0.18824
0.2
0.19412
0.2
0.19412
0.2
0.20392
0.20392
0.20392
0.20392
0.20392
0.20392
0.20392
0.20392
0.2098
0.20392
0.20392
0.20392
0.20392
0.20392
0.20392
0.20392
0.2098
0.2098
0.22941
0.22941
0.22941
0.21961
0.22353
0.23333
0.24902
0.26471
0.26863
0.2549
0.24902
0.23333
0.22941
0.15882
0.13333
0.19412
0.20392
0.19412
0.1549
0.098039
0.062745
0.04902
0.058824
0.098039
0.12941
0.098039
0.078431
0.14902
0.21961
0.27843
0.28431
0.21961
0.16863
0.17843
0.17843
0.18431
0.17843
0.18431
0.19412
0.18824
0.2
0.2
0.20392
0.20392
0.20392
0.20392
0.20392
0.20392
0.2098
0.2098
0.21961
0.2098
0.22353
0.21961
0.22941
0.22941
0.23922
0.2451
0.2451
0.24902
0.24902
0.25882
0.26471
0.26863
0.25882
0.26471
0.25882
0.25882
0.25882
0.26471
0.2549
0.2549
0.2549
0.25882
0.24902
0.2549
0.2451
0.24902
0.22941
0.23333
0.22353
0.22353
0.21961
0.21961
0.2098
0.2098
0.2098
0.20392
0.20392
0.2
0.20392
0.2
0.20392
0.2
0.20392
0.20392
0.20392
0.20392
0.21373
0.2098
0.22353
0.21961
0.22353
0.21961
0.22353
0.21961
0.22353
0.22353
0.22353
0.21961
0.22353
0.21961
0.21373
0.21961
0.22353
0.22941
0.22941
0.23922
0.23922
0.2451
0.23922
0.2451
0.2451
0.26471
0.26863
0.27451
0.24902
0.24902
0.23333
0.22941
0.14902
0.12353
0.18431
0.20392
0.18824
0.1549
0.084314
0.039216
0.023529
0.043137
0.078431
0.1098
0.07451
0.04902
0.11373
0.2
0.26863
0.2902
0.23922
0.19412
0.20392
0.2
0.20392
0.2
0.20392
0.20392
0.2098
0.21373
0.2098
0.21961
0.21373
0.21961
0.21373
0.22353
0.22353
0.22941
0.22353
0.22941
0.22353
0.22941
0.23333
0.23922
0.23922
0.24902
0.24902
0.2549
0.25882
0.26471
0.26471
0.27451
0.27451
0.27451
0.27451
0.27451
0.27451
0.27451
0.27451
0.27451
0.26863
0.26471
0.26471
0.25882
0.26471
0.2549
0.24902
0.23922
0.23333
0.22941
0.22941
0.21373
0.21373
0.20392
0.2098
0.20392
0.20392
0.2
0.2
0.19412
0.2
0.18824
0.19412
0.2
0.19412
0.20392
0.2
0.20392
0.20392
0.2098
0.20392
0.20392
0.20392
0.21373
0.2098
0.21961
0.2098
0.21373
0.2098
0.21373
0.2098
0.21373
0.21373
0.22353
0.22941
0.23922
0.23922
0.2451
0.23922
0.2451
0.24902
0.2549
0.27451
0.27451
0.26471
0.2549
0.2549
0.23922
0.18431
0.13922
0.19412
0.20392
0.2
0.15882
0.10392
0.04902
0.033333
0.039216
0.078431
0.11961
0.10392
0.078431
0.13333
0.20392
0.27451
0.2902
0.2451
0.18824
0.17843
0.18824
0.17843
0.18824
0.18431
0.19412
0.19412
0.2
0.19412
0.2
0.19412
0.2
0.19412
0.2
0.19412
0.2
0.2
0.20392
0.2098
0.20392
0.21373
0.22353
0.22941
0.22941
0.23333
0.22941
0.2451
0.24902
0.24902
0.24902
0.26471
0.25882
0.26471
0.25882
0.26863
0.26471
0.26471
0.2549
0.2549
0.24902
0.24902
0.24902
0.24902
0.2451
0.23922
0.22941
0.22941
0.22941
0.22941
0.21961
0.21373
0.21961
0.20392
0.2098
0.20392
0.20392
0.19412
0.2
0.18824
0.2
0.18824
0.2
0.18824
0.20392
0.2
0.20392
0.2
0.20392
0.20392
0.20392
0.2098
0.20392
0.2098
0.20392
0.21373
0.2098
0.21373
0.20392
0.21373
0.20392
0.21373
0.2098
0.21961
0.22353
0.23333
0.23333
0.23922
0.22941
0.2451
0.24902
0.26863
0.27451
0.26471
0.2451
0.2451
0.22941
0.21373
0.12941
0.1549
0.2
0.2
0.17843
0.12941
0.07451
0.043137
0.039216
0.062745
0.10392
0.12353
0.078431
0.07451
0.15882
0.23333
0.27451
0.27843
0.19412
0.15882
0.17451
0.16863
0.17843
0.17451
0.17843
0.17843
0.18431
0.18824
0.18431
0.19412
0.18431
0.18824
0.18431
0.18824
0.18431
0.2
0.19412
0.20392
0.20392
0.2098
0.21373
0.21961
0.21961
0.22941
0.22941
0.23333
0.23922
0.23922
0.23922
0.24902
0.2451
0.24902
0.2451
0.24902
0.24902
0.24902
0.24902
0.2451
0.23922
0.23333
0.23922
0.22941
0.22941
0.22941
0.22941
0.21373
0.21961
0.2098
0.2098
0.20392
0.20392
0.2
0.2
0.19412
0.19412
0.18824
0.18824
0.19412
0.18824
0.2
0.18824
0.2
0.20392
0.20392
0.2
0.20392
0.20392
0.2098
0.20392
0.2098
0.20392
0.20392
0.20392
0.20392
0.20392
0.2098
0.20392
0.20392
0.20392
0.2098
0.20392
0.21373
0.21373
0.22353
0.22941
0.22941
0.21961
0.21373
0.22941
0.23922
0.25882
0.2549
0.25882
0.22941
0.22941
0.21373
0.19412
0.11961
0.16471
0.18431
0.18824
0.14314
0.094118
0.043137
0.023529
0.017647
0.062745
0.098039
0.10392
0.043137
0.094118
0.16471
0.23333
0.26471
0.22941
0.17451
0.15882
0.17843
0.17451
0.17843
0.17843
0.17843
0.17843
0.18824
0.18824
0.19412
0.18824
0.19412
0.19412
0.2
0.19412
0.19412
0.2
0.20392
0.2
0.20392
0.2098
0.21373
0.21961
0.21961
0.22941
0.22941
0.2451
0.23922
0.24902
0.24902
0.25882
0.2549
0.25882
0.24902
0.2549
0.2549
0.2549
0.24902
0.24902
0.24902
0.24902
0.23922
0.23333
0.23333
0.22941
0.22941
0.22353
0.22353
0.21961
0.2098
0.20392
0.20392
0.19412
0.2
0.18824
0.19412
0.18431
0.18824
0.18431
0.18824
0.19412
0.18824
0.2
0.20392
0.2
0.20392
0.20392
0.2098
0.20392
0.2098
0.21373
0.2098
0.2098
0.20392
0.21961
0.2098
0.21373
0.2098
0.2098
0.2098
0.21961
0.21373
0.22941
0.22353
0.23922
0.23333
0.23922
0.22941
0.22941
0.23333
0.24902
0.26471
0.26471
0.24902
0.2451
0.23333
0.22941
0.18431
0.12941
0.17843
0.18824
0.17843
0.13333
0.058824
0.013725
0.0078431
0.023529
0.068627
0.10392
0.078431
0.058824
0.12353
0.18824
0.2549
0.26863
0.22941
0.17843
0.18431
0.17843
0.18431
0.18824
0.17843
0.18824
0.18431
0.2
0.2
0.20392
0.20392
0.20392
0.20392
0.2098
0.20392
0.2098
0.20392
0.2098
0.21373
0.21961
0.22353
0.22941
0.22941
0.23333
0.23333
0.2451
0.2451
0.24902
0.2549
0.2549
0.25882
0.25882
0.26471
0.2549
0.25882
0.2549
0.25882
0.24902
0.2549
0.24902
0.24902
0.2451
0.2451
0.23922
0.23922
0.22941
0.22941
0.21961
0.22353
0.21373
0.21373
0.2098
0.20392
0.20392
0.2
0.19412
0.18824
0.19412
0.18824
0.2
0.19412
0.20392
0.2
0.20392
0.20392
0.2098
0.20392
0.2098
0.2098
0.21373
0.20392
0.2098
0.2098
0.21373
0.20392
0.2098
0.2098
0.21373
0.2098
0.21373
0.21961
0.21373
0.22941
0.23333
0.23922
0.23333
0.22941
0.22941
0.2451
0.24902
0.27451
0.26863
0.26471
0.24902
0.24902
0.22941
0.2098
0.13333
0.16863
0.2
0.2
0.16471
0.1098
0.058824
0.039216
0.033333
0.07451
0.1098
0.11961
0.07451
0.11961
0.18824
0.2549
0.2902
0.24902
0.19412
0.17843
0.18824
0.17843
0.18431
0.18824
0.19412
0.18824
0.20392
0.2
0.20392
0.20392
0.20392
0.20392
0.20392
0.2098
0.2098
0.2098
0.21373
0.21961
0.21373
0.22353
0.22353
0.22941
0.22941
0.23333
0.23333
0.24902
0.2451
0.25882
0.2549
0.26471
0.2549
0.26471
0.26863
0.25882
0.27451
0.26863
0.25882
0.25882
0.2549
0.2549
0.24902
0.2451
0.24902
0.2451
0.23922
0.23333
0.23333
0.22941
0.22941
0.22353
0.22353
0.21373
0.21961
0.2098
0.21373
0.20392
0.2098
0.20392
0.2098
0.20392
0.2098
0.2098
0.21373
0.21961
0.21373
0.22941
0.22353
0.22941
0.22941
0.22353
0.21961
0.22941
0.22941
0.22941
0.22941
0.22941
0.22941
0.22941
0.22941
0.22941
0.23333
0.23922
0.23922
0.2549
0.2549
0.24902
0.2451
0.2549
0.26863
0.27843
0.2902
0.2902
0.27451
0.26471
0.2549
0.24902
0.17843
0.15882
0.21961
0.22353
0.21961
0.17451
0.11961
0.078431
0.062745
0.07451
0.11373
0.1549
0.11961
0.10392
0.17451
0.24902
0.30392
0.31373
0.23922
0.2
0.19412
0.20392
0.20392
0.2098
0.20392
0.21961
0.21961
0.22353
0.21961
0.22941
0.22353
0.22941
0.22353
0.22941
0.22941
0.22941
0.22941
0.22941
0.22941
0.22941
0.23333
0.2451
0.24902
0.24902
0.2549
0.26471
0.26863
0.27451
0.27451
0.27451
0.27843
0.27843
0.2902
0.28431
0.2902
0.28431
0.2902
0.28431
0.28431
0.27451
0.27451
0.26863
0.26863
0.26471
0.26863
0.26471
0.2549
0.24902
0.2451
0.24902
0.23922
0.23333
0.22941
0.22353
0.22353
0.22353
0.21961
0.21961
0.21373
0.21961
0.2098
0.21961
0.21373
0.22353
0.21961
0.22353
0.22353
0.22941
0.22941
0.22941
0.22353
0.22941
0.22941
0.22941
0.22941
0.22941
0.22941
0.22941
0.22941
0.22941
0.22941
0.23333
0.23922
0.23922
0.24902
0.24902
0.2451
0.23333
0.24902
0.24902
0.26863
0.27451
0.27451
0.24902
0.2451
0.22941
0.22941
0.13333
0.12941
0.20392
0.20392
0.18431
0.12353
0.058824
0.023529
0.013725
0.043137
0.078431
0.098039
0.052941
0.039216
0.12941
0.2098
0.26863
0.27843
0.21373
0.18431
0.18824
0.17843
0.18431
0.18431
0.18824
0.18824
0.19412
0.2
0.19412
0.20392
0.2
0.20392
0.20392
0.20392
0.20392
0.2098
0.20392
0.2098
0.2098
0.21373
0.21373
0.22353
0.22353
0.23333
0.22941
0.23922
0.2451
0.24902
0.24902
0.24902
0.24902
0.24902
0.2549
0.2549
0.2549
0.24902
0.25882
0.2549
0.24902
0.24902
0.24902
0.2451
0.24902
0.23922
0.22941
0.22353
0.22353
0.21373
0.21373
0.20392
0.20392
0.19412
0.19412
0.18431
0.18824
0.18431
0.17843
0.17843
0.17843
0.17843
0.17843
0.17843
0.17843
0.19412
0.19412
0.2
0.19412
0.20392
0.20392
0.20392
0.20392
0.20392
0.20392
0.20392
0.20392
0.2098
0.20392
0.2098
0.20392
0.20392
0.2098
0.20392
0.21373
0.21961
0.22941
0.22941
0.21961
0.21373
0.22941
0.23922
0.25882
0.26471
0.2549
0.23922
0.23922
0.22941
0.20392
0.11373
0.14902
0.18824
0.19412
0.16471
0.11961
0.052941
0.033333
0.017647
0.058824
0.084314
0.11373
0.068627
0.062745
0.1549
0.22941
0.26471
0.27451
0.2
0.16863
0.17843
0.17843
0.18431
0.17843
0.18824
0.18824
0.19412
0.19412
0.2
0.19412
0.2
0.19412
0.2
0.19412
0.20392
0.2
0.20392
0.20392
0.2
0.20392
0.20392
0.21373
0.21961
0.22941
0.22941
0.23922
0.23922
0.24902
0.2451
0.24902
0.24902
0.2549
0.24902
0.2549
0.24902
0.24902
0.2549
0.24902
0.2451
0.2451
0.23333
0.23333
0.23333
0.22941
0.22353
0.21961
0.22353
0.2098
0.21373
0.20392
0.20392
0.19412
0.19412
0.18824
0.19412
0.18431
0.19412
0.18824
0.19412
0.18824
0.19412
0.18824
0.18824
0.19412
0.18824
0.2
0.2
0.20392
0.20392
0.2098
0.20392
0.2098
0.20392
0.2098
0.2098
0.21373
0.2098
0.21961
0.21373
0.21961
0.21373
0.22353
0.22353
0.22941
0.22941
0.22941
0.21961
0.22941
0.23333
0.24902
0.26471
0.26863
0.24902
0.24902
0.23922
0.22941
0.2098
0.12941
0.16863
0.2
0.19412
0.16471
0.11373
0.062745
0.043137
0.039216
0.078431
0.1098
0.12353
0.07451
0.11961
0.18431
0.25882
0.27843
0.24902
0.18824
0.16863
0.17843
0.17451
0.17843
0.17843
0.18431
0.17843
0.18431
0.17843
0.18824
0.17843
0.18431
0.18431
0.19412
0.19412
0.2
0.2
0.20392
0.20392
0.2098
0.2098
0.21373
0.21373
0.21961
0.22353
0.22941
0.23333
0.22941
0.2451
0.2451
0.24902
0.2451
0.24902
0.24902
0.2549
0.2549
0.25882
0.24902
0.24902
0.24902
0.24902
0.23922
0.23922
0.22941
0.22941
0.22353
0.21961
0.2098
0.2098
0.20392
0.20392
0.2
0.19412
0.18824
0.18824
0.18431
0.18431
0.18824
0.17843
0.18824
0.18431
0.19412
0.19412
0.2
0.19412
0.20392
0.20392
0.20392
0.20392
0.2098
0.20392
0.20392
0.20392
0.20392
0.20392
0.2098
0.2098
0.20392
0.2098
0.20392
0.2098
0.2098
0.21961
0.21373
0.23333
0.23333
0.23333
0.22353
0.23333
0.23922
0.2549
0.26863
0.27843
0.2549
0.24902
0.23333
0.22941
0.17843
0.12353
0.17843
0.20392
0.19412
0.16863
0.1098
0.062745
0.043137
0.039216
0.084314
0.11961
0.12941
0.07451
0.12353
0.18824
0.2549
0.27451
0.23333
0.17451
0.17843
0.17843
0.18431
0.17843
0.18431
0.18431
0.18824
0.2
0.19412
0.2
0.19412
0.2
0.20392
0.20392
0.20392
0.20392
0.20392
0.2098
0.2098
0.21961
0.21373
0.22941
0.22941
0.23922
0.23922
0.24902
0.24902
0.24902
0.2549
0.24902
0.26471
0.26471
0.25882
0.26471
0.25882
0.2549
0.26471
0.25882
0.26471
0.24902
0.24902
0.24902
0.24902
0.2451
0.23922
0.22941
0.22941
0.21961
0.22353
0.21373
0.21373
0.20392
0.20392
0.2
0.2
0.19412
0.2
0.18431
0.18824
0.19412
0.18824
0.2
0.19412
0.20392
0.20392
0.2098
0.20392
0.2098
0.2098
0.21373
0.2098
0.22353
0.21961
0.22353
0.21373
0.21961
0.2098
0.21961
0.2098
0.21373
0.21373
0.21961
0.21961
0.22353
0.22941
0.23333
0.2451
0.2451
0.23922
0.23333
0.24902
0.26471
0.27451
0.27451
0.25882
0.24902
0.2451
0.22941
0.1549
0.13333
0.2
0.2
0.18431
0.11961
0.058824
0.023529
0.017647
0.052941
0.078431
0.10392
0.062745
0.058824
0.13922
0.21961
0.26863
0.28431
0.21961
0.18431
0.18824
0.19412
0.18431
0.19412
0.19412
0.2
0.2
0.20392
0.2
0.20392
0.2
0.20392
0.2
0.20392
0.20392
0.20392
0.2098
0.20392
0.2098
0.21373
0.21961
0.21373
0.22941
0.22941
0.23922
0.2451
0.24902
0.24902
0.25882
0.26471
0.26863
0.26471
0.26863
0.26863
0.26863
0.26471
0.26863
0.26471
0.25882
0.24902
0.24902
0.2451
0.2451
0.23922
0.23922
0.22941
0.22941
0.22941
0.22941
0.22353
0.21373
0.21961
0.20392
0.20392
0.20392
0.20392
0.2
0.20392
0.2
0.20392
0.2
0.20392
0.20392
0.2098
0.20392
0.2098
0.20392
0.2098
0.21373
0.20392
0.21373
0.2098
0.21373
0.20392
0.21373
0.2098
0.21373
0.2098
0.21961
0.2098
0.22353
0.22353
0.22941
0.22941
0.23333
0.23922
0.22941
0.22941
0.2451
0.24902
0.26863
0.27451
0.26471
0.24902
0.2451
0.22941
0.21961
0.21373
0.12353
0.11961
0.18824
0.2
0.17843
0.13333
0.078431
0.052941
0.039216
0.07451
0.098039
0.12353
0.078431
0.098039
0.16471
0.2451
0.27843
0.2902
0.2098
0.18431
0.18824
0.19412
0.18824
0.19412
0.2
0.2
0.20392
0.19412
0.2
0.19412
0.20392
0.19412
0.20392
0.2
0.20392
0.2
0.20392
0.20392
0.2098
0.20392
0.21373
0.21373
0.22353
0.22941
0.22941
0.22941
0.2451
0.24902
0.2451
0.24902
0.24902
0.24902
0.24902
0.24902
0.24902
0.2549
0.24902
0.2451
0.23922
0.2451
0.23922
0.2451
0.23333
0.23922
0.22941
0.22941
0.21961
0.21961
0.21373
0.2098
0.20392
0.20392
0.19412
0.19412
0.18431
0.18824
0.19412
0.18824
0.19412
0.18824
0.19412
0.18824
0.2
0.19412
0.2
0.19412
0.2
0.19412
0.2
0.19412
0.20392
0.2
0.20392
0.20392
0.20392
0.20392
0.20392
0.2098
0.20392
0.21373
0.22353
0.22353
0.22941
0.23333
0.23922
0.22941
0.22941
0.23922
0.24902
0.27451
0.26863
0.25882
0.24902
0.2451
0.22941
0.22353
0.20392
0.12353
0.11373
0.19412
0.18824
0.18431
0.14314
0.084314
0.058824
0.043137
0.068627
0.10392
0.12941
0.088235
0.084314
0.15882
0.23922
0.27843
0.2902
0.2098
0.17843
0.17843
0.18824
0.18824
0.2
0.19412
0.2
0.2
0.20392
0.2
0.2
0.19412
0.2
0.20392
0.2
0.20392
0.2
0.20392
0.20392
0.21961
0.21373
0.21961
0.22353
0.23333
0.23333
0.2451
0.23922
0.2451
0.2451
0.24902
0.24902
0.2549
0.24902
0.2549
0.26471
0.25882
0.24902
0.2549
0.2549
0.24902
0.24902
0.24902
0.2451
0.2451
0.2451
0.23922
0.22941
0.22941
0.22941
0.22353
0.22353
0.2098
0.21373
0.20392
0.20392
0.20392
0.2
0.20392
0.2
0.2
0.20392
0.2
0.20392
0.20392
0.20392
0.2098
0.2098
0.21373
0.2098
0.21961
0.2098
0.21373
0.2098
0.21961
0.21373
0.21961
0.2098
0.22353
0.21373
0.22353
0.22353
0.22941
0.22941
0.23333
0.23922
0.23333
0.22941
0.23333
0.2451
0.25882
0.26863
0.27451
0.26471
0.2549
0.2451
0.22941
0.2098
0.11961
0.16471
0.18431
0.19412
0.15882
0.098039
0.039216
0.023529
0.013725
0.058824
0.084314
0.098039
0.033333
0.07451
0.14314
0.22941
0.26863
0.2451
0.18824
0.17843
0.18824
0.18824
0.19412
0.19412
0.20392
0.2
0.20392
0.20392
0.20392
0.20392
0.20392
0.20392
0.20392
0.20392
0.2098
0.2098
0.21373
0.2098
0.21373
0.21961
0.22353
0.22941
0.22941
0.23333
0.23333
0.2451
0.24902
0.2549
0.2549
0.25882
0.2549
0.26471
0.25882
0.25882
0.2549
0.25882
0.24902
0.24902
0.24902
0.2451
0.23922
0.2451
0.23333
0.23333
0.22941
0.22353
0.21373
0.2098
0.20392
0.20392
0.2
0.19412
0.18824
0.18431
0.18824
0.17843
0.18431
0.17843
0.18431
0.17843
0.17843
0.17843
0.18431
0.18431
0.19412
0.2
0.19412
0.2
0.19412
0.2
0.19412
0.20392
0.2
0.20392
0.2
0.20392
0.20392
0.20392
0.2
0.20392
0.20392
0.21373
0.2098
0.22941
0.22941
0.22941
0.21961
0.22941
0.22941
0.2451
0.25882
0.26863
0.24902
0.24902
0.23333
0.22941
0.20392
0.11961
0.16471
0.18824
0.19412
0.1549
0.098039
0.043137
0.023529
0.013725
0.058824
0.088235
0.1098
0.058824
0.094118
0.15882
0.23333
0.26471
0.26863
0.18824
0.17451
0.17843
0.17451
0.17843
0.17843
0.18824
0.19412
0.19412
0.19412
0.2
0.19412
0.2
0.19412
0.2
0.19412
0.20392
0.2
0.20392
0.20392
0.20392
0.20392
0.21373
0.2098
0.22353
0.22353
0.22941
0.23333
0.2451
0.24902
0.24902
0.2549
0.24902
0.25882
0.25882
0.26471
0.2549
0.25882
0.24902
0.2451
0.23922
0.2451
0.23333
0.2451
0.22941
0.22941
0.22353
0.22353
0.21373
0.21373
0.20392
0.20392
0.2
0.2
0.18824
0.19412
0.18431
0.18824
0.19412
0.18431
0.18824
0.18431
0.18824
0.18824
0.19412
0.18824
0.2
0.19412
0.20392
0.2
0.20392
0.20392
0.20392
0.20392
0.20392
0.2
0.20392
0.20392
0.20392
0.20392
0.2
0.20392
0.2
0.2098
0.21373
0.22353
0.22941
0.22941
0.21961
0.22353
0.22941
0.24902
0.2549
0.25882
0.2451
0.2451
0.22941
0.22353
0.2098
0.2098
0.11961
0.1098
0.18431
0.18824
0.17451
0.12941
0.07451
0.043137
0.033333
0.062745
0.098039
0.11961
0.078431
0.068627
0.1549
0.23333
0.27451
0.27843
0.20392
0.17451
0.17843
0.17843
0.17843
0.17843
0.18824
0.18431
0.18824
0.18824
0.19412
0.19412
0.19412
0.19412
0.19412
0.2
0.19412
0.20392
0.19412
0.20392
0.2
0.20392
0.20392
0.21961
0.21961
0.22941
0.22941
0.23922
0.23333
0.24902
0.23922
0.24902
0.24902
0.24902
0.24902
0.2549
0.24902
0.24902
0.24902
0.24902
0.2451
0.2451
0.24902
0.23922
0.23333
0.23333
0.23333
0.22941
0.21961
0.21373
0.21961
0.2098
0.20392
0.20392
0.20392
0.2
0.20392
0.2
0.2
0.18824
0.19412
0.19412
0.2
0.20392
0.2
0.20392
0.20392
0.2098
0.20392
0.21373
0.2098
0.21961
0.2098
0.21961
0.2098
0.21961
0.21373
0.22353
0.21961
0.22353
0.21961
0.22353
0.21961
0.22941
0.22941
0.23333
0.22941
0.23333
0.23333
0.24902
0.26471
0.27843
0.28431
0.26863
0.2549
0.24902
0.23922
0.22941
0.21373
0.12941
0.17843
0.20392
0.20392
0.17843
0.13333
0.078431
0.058824
0.04902
0.084314
0.11373
0.12941
0.078431
0.11961
0.18431
0.25882
0.28431
0.2549
0.18824
0.17451
0.18824
0.18431
0.18824
0.18431
0.19412
0.18824
0.19412
0.18824
0.19412
0.18824
0.2
0.2
0.20392
0.2
0.20392
0.20392
0.2098
0.20392
0.2098
0.2098
0.21961
0.22353
0.22941
0.23333
0.23922
0.2451
0.24902
0.24902
0.24902
0.25882
0.2549
0.26863
0.25882
0.26863
0.26471
0.26863
0.2549
0.25882
0.2549
0.2549
0.24902
0.24902
0.23922
0.23333
0.22941
0.22941
0.21961
0.21961
0.2098
0.20392
0.2098
0.20392
0.20392
0.2
0.19412
0.19412
0.19412
0.19412
0.19412
0.18824
0.19412
0.19412
0.2
0.19412
0.20392
0.2
0.2
0.19412
0.2
0.2
0.20392
0.20392
0.20392
0.20392
0.20392
0.20392
0.20392
0.20392
0.20392
0.2098
0.21373
0.22353
0.22941
0.23333
0.22941
0.22353
0.21961
0.23922
0.2451
0.25882
0.25882
0.2549
0.23333
0.22941
0.21961
0.21373
0.12941
0.11961
0.18824
0.18431
0.15882
0.098039
0.029412
0.0039216
-0.0019608
0.043137
0.078431
0.088235
0.04902
0.07451
0.14314
0.22353
0.27843
0.28431
0.2098
0.17843
0.19412
0.18431
0.19412
0.2
0.19412
0.20392
0.20392
0.20392
0.20392
0.20392
0.2098
0.21373
0.21373
0.21961
0.21373
0.22353
0.22353
0.22941
0.22941
0.22941
0.22941
0.23922
0.23922
0.24902
0.24902
0.25882
0.25882
0.26863
0.26471
0.27451
0.26863
0.27451
0.27451
0.27451
0.27451
0.27451
0.27451
0.26863
0.26471
0.25882
0.26471
0.2549
0.2549
0.24902
0.23922
0.22941
0.23333
0.22941
0.22941
0.21961
0.22353
0.2098
0.2098
0.20392
0.20392
0.2
0.20392
0.20392
0.2
0.20392
0.2
0.20392
0.2
0.20392
0.20392
0.2098
0.20392
0.2098
0.2098
0.21373
0.2098
0.21961
0.21373
0.21961
0.21373
0.22353
0.21961
0.22941
0.22353
0.22353
0.22353
0.22941
0.22941
0.23922
0.2451
0.23333
0.22941
0.23922
0.24902
0.26863
0.27451
0.26863
0.2549
0.24902
0.24902
0.22941
0.22941
0.14902
0.12353
0.18824
0.2
0.18431
0.1549
0.088235
0.052941
0.033333
0.052941
0.078431
0.11961
0.088235
0.062745
0.13922
0.21961
0.27451
0.27843
0.21961
0.17451
0.17843
0.18824
0.19412
0.18824
0.20392
0.2
0.20392
0.2
0.20392
0.20392
0.20392
0.20392
0.20392
0.20392
0.20392
0.20392
0.20392
0.2098
0.20392
0.21373
0.21961
0.22353
0.21961
0.22941
0.22941
0.22941
0.22941
0.2451
0.2451
0.24902
0.24902
0.24902
0.24902
0.25882
0.2549
0.24902
0.24902
0.24902
0.2451
0.24902
0.23922
0.23333
0.22941
0.22941
0.23333
0.22353
0.22941
0.21961
0.21373
0.2098
0.21373
0.20392
0.20392
0.2
0.20392
0.2
0.2
0.18824
0.19412
0.18824
0.19412
0.18431
0.19412
0.18824
0.2
0.20392
0.2
0.20392
0.20392
0.20392
0.20392
0.2098
0.20392
0.20392
0.20392
0.20392
0.20392
0.20392
0.20392
0.20392
0.20392
0.21373
0.21961
0.22941
0.21961
0.21373
0.21373
0.22941
0.23922
0.25882
0.26471
0.24902
0.23922
0.22941
0.21961
0.2098
0.18824
0.1098
0.14314
0.18431
0.18824
0.16863
0.12353
0.068627
0.039216
0.029412
0.062745
0.094118
0.11373
0.062745
0.088235
0.14902
0.23333
0.26471
0.26863
0.18431
0.15882
0.16471
0.16863
0.16471
0.17843
0.17843
0.17843
0.18431
0.18431
0.18431
0.17843
0.17843
0.18431
0.18824
0.18431
0.18824
0.18431
0.19412
0.19412
0.20392
0.20392
0.21373
0.21373
0.22353
0.22941
0.22941
0.23333
0.23333
0.23922
0.2451
0.24902
0.23922
0.24902
0.24902
0.24902
0.2451
0.24902
0.2451
0.2451
0.23333
0.23922
0.22941
0.22941
0.21961
0.22353
0.21373
0.21961
0.2098
0.2098
0.20392
0.2
0.18824
0.18431
0.19412
0.18431
0.18824
0.18431
0.17843
0.17843
0.18431
0.17843
0.18431
0.17843
0.18824
0.18431
0.19412
0.18431
0.19412
0.19412
0.2
0.18824
0.19412
0.2
0.20392
0.19412
0.2
0.19412
0.2
0.19412
0.2
0.20392
0.2
0.20392
0.2098
0.2098
0.20392
0.2098
0.20392
0.22941
0.23922
0.24902
0.2451
0.2451
0.22941
0.21961
0.20392
0.2
0.14902
0.098039
0.1549
0.17451
0.17843
0.13922
0.078431
0.033333
0.013725
0.017647
0.052941
0.088235
0.094118
0.033333
0.088235
0.15882
0.23922
0.26863
0.23333
0.17843
0.17843
0.17843
0.18824
0.17843
0.18431
0.17843
0.18431
0.18824
0.19412
0.2
0.19412
0.2
0.19412
0.20392
0.19412
0.20392
0.19412
0.2
0.2
0.20392
0.20392
0.2098
0.2098
0.21961
0.22353
0.22941
0.22941
0.23922
0.23333
0.24902
0.2451
0.2549
0.24902
0.24902
0.2549
0.24902
0.2549
0.2451
0.23922
0.23333
0.23922
0.22941
0.22353
0.21961
0.22353
0.21373
0.20392
0.20392
0.20392
0.19412
0.19412
0.18431
0.18824
0.17843
0.18431
0.18431
0.18431
0.17843
0.17843
0.17843
0.17451
0.17843
0.18431
0.17843
0.17843
0.18431
0.18824
0.2
0.19412
0.2
0.19412
0.2
0.2
0.20392
0.20392
0.20392
0.20392
0.20392
0.2
0.20392
0.20392
0.21373
0.21961
0.22941
0.22941
0.22941
0.22353
0.22941
0.23333
0.24902
0.2549
0.24902
0.23922
0.22941
0.22941
0.2098
0.16471
0.11373
0.17451
0.18431
0.17843
0.13333
0.068627
0.017647
0.013725
0.023529
0.062745
0.098039
0.07451
0.052941
0.12353
0.19412
0.2549
0.26863
0.21961
0.17451
0.16863
0.17843
0.17843
0.17843
0.17843
0.18431
0.18824
0.2
0.2
0.20392
0.2
0.20392
0.2
0.20392
0.20392
0.20392
0.20392
0.2098
0.20392
0.21373
0.21961
0.22353
0.22941
0.22353
0.23333
0.23333
0.2451
0.24902
0.24902
0.24902
0.24902
0.24902
0.25882
0.24902
0.2549
0.24902
0.2549
0.24902
0.24902
0.2451
0.24902
0.23333
0.23333
0.22353
0.22353
0.21961
0.21373
0.21961
0.2098
0.20392
0.20392
0.2
0.19412
0.2
0.18824
0.19412
0.19412
0.19412
0.18824
0.19412
0.18431
0.19412
0.18824
0.2
0.19412
0.20392
0.2
0.20392
0.2
0.20392
0.20392
0.20392
0.20392
0.20392
0.20392
0.20392
0.20392
0.20392
0.2098
0.20392
0.20392
0.20392
0.21961
0.21373
0.22941
0.22941
0.22941
0.22353
0.23333
0.24902
0.26471
0.26863
0.26471
0.2451
0.2451
0.22353
0.21373
0.20392
0.12353
0.11373
0.18431
0.18824
0.17451
0.12941
0.07451
0.043137
0.033333
0.058824
0.088235
0.12353
0.078431
0.094118
0.1549
0.23333
0.27451
0.28431
0.2098
0.17843
0.17843
0.18824
0.19412
0.2
0.2
0.20392
0.20392
0.20392
0.20392
0.20392
0.20392
0.20392
0.20392
0.20392
0.2098
0.20392
0.2098
0.20392
0.21961
0.21373
0.22941
0.22941
0.23333
0.22941
0.23922
0.23922
0.24902
0.24902
0.2549
0.24902
0.25882
0.26471
0.26863
0.26471
0.25882
0.26863
0.26471
0.26471
0.25882
0.26471
0.2549
0.24902
0.2451
0.2451
0.23922
0.23922
0.23333
0.23333
0.22353
0.21961
0.21373
0.21961
0.2098
0.2098
0.2098
0.2098
0.20392
0.20392
0.2098
0.20392
0.2098
0.20392
0.21373
0.2098
0.21373
0.21373
0.21961
0.21961
0.22941
0.22353
0.22941
0.22941
0.22941
0.22941
0.23333
0.22941
0.22353
0.22941
0.22941
0.22941
0.23922
0.24902
0.23922
0.24902
0.24902
0.2451
0.23922
0.2549
0.26471
0.28431
0.2902
0.27843
0.26863
0.25882
0.2451
0.23922
0.22941
0.16471
0.13333
0.20392
0.2098
0.20392
0.16863
0.11373
0.078431
0.062745
0.068627
0.1098
0.14902
0.11373
0.094118
0.14902
0.22941
0.2902
0.3
0.23333
0.18824
0.19412
0.20392
0.2
0.20392
0.20392
0.2098
0.20392
0.2098
0.2098
0.21373
0.2098
0.21373
0.21961
0.21373
0.22353
0.21961
0.22941
0.22353
0.22941
0.22941
0.23922
0.23333
0.2451
0.2451
0.2549
0.24902
0.25882
0.25882
0.26863
0.26863
0.27451
0.27451
0.27451
0.27451
0.28431
0.27843
0.27451
0.27451
0.27451
0.26863
0.26471
0.26863
0.26471
0.2549
0.24902
0.2549
0.2451
0.2451
0.23922
0.23333
0.22941
0.22941
0.21961
0.22353
0.21961
0.22353
0.21373
0.22353
0.21373
0.21961
0.21961
0.21373
0.22941
0.22941
0.22353
0.22941
0.22941
0.22941
0.22941
0.22941
0.23333
0.22941
0.22941
0.22941
0.23333
0.22941
0.23333
0.23333
0.23922
0.22941
0.23922
0.23922
0.2451
0.24902
0.2549
0.24902
0.24902
0.24902
0.26471
0.27451
0.28431
0.2902
0.27451
0.26863
0.26471
0.24902
0.2
0.1549
0.2098
0.22941
0.2098
0.16863
0.088235
0.04902
0.029412
0.043137
0.07451
0.11961
0.084314
0.062745
0.11373
0.19412
0.25882
0.3
0.2549
0.2098
0.2098
0.21373
0.21961
0.21373
0.22353
0.21961
0.22941
0.22941
0.22941
0.22941
0.23922
0.23333
0.23922
0.22941
0.23922
0.23922
0.24902
0.2451
0.24902
0.2549
0.24902
0.25882
0.26471
0.27451
0.26471
0.26863
0.27451
0.27843
0.27843
0.28431
0.28431
0.2902
0.2902
0.2902
0.28431
0.2902
0.28431
0.29412
0.28431
0.28431
0.27451
0.27451
0.27451
0.26863
0.25882
0.2549
0.24902
0.24902
0.2451
0.23922
0.23333
0.22941
0.22941
0.22353
0.22941
0.21961
0.22353
0.21961
0.21961
0.21373
0.22353
0.21961
0.22941
0.22353
0.22941
0.21961
0.22941
0.22941
0.22941
0.22941
0.22941
0.23333
0.22941
0.23333
0.22941
0.22941
0.22941
0.22941
0.22941
0.23333
0.22941
0.23333
0.22941
0.23922
0.24902
0.2549
0.24902
0.24902
0.24902
0.25882
0.27451
0.28431
0.27451
0.26863
0.2549
0.24902
0.23333
0.22941
0.1549
0.12941
0.18824
0.2
0.19412
0.1549
0.098039
0.052941
0.039216
0.04902
0.088235
0.11961
0.088235
0.07451
0.13922
0.21373
0.27451
0.27843
0.22353
0.17843
0.18431
0.18431
0.18824
0.19412
0.18824
0.19412
0.18824
0.19412
0.18824
0.2
0.18824
0.2
0.19412
0.2
0.19412
0.20392
0.2
0.20392
0.20392
0.2098
0.2098
0.21961
0.21961
0.22941
0.22941
0.23922
0.2451
0.24902
0.24902
0.24902
0.24902
0.25882
0.26471
0.2549
0.26471
0.2549
0.26471
0.24902
0.24902
0.24902
0.24902
0.24902
0.2451
0.23333
0.23333
0.22941
0.22941
0.21373
0.21373
0.2098
0.2098
0.20392
0.2
0.19412
0.2
0.19412
0.19412
0.2
0.18824
0.2
0.19412
0.2
0.19412
0.2
0.19412
0.2
0.2
0.20392
0.2
0.20392
0.2
0.20392
0.2
0.20392
0.2
0.20392
0.20392
0.2098
0.20392
0.2098
0.2098
0.2098
0.21373
0.22353
0.22941
0.22941
0.22353
0.22941
0.23922
0.24902
0.26471
0.25882
0.24902
0.23333
0.22941
0.20392
0.20392
0.15882
0.1098
0.15882
0.17843
0.17451
0.14902
0.094118
0.04902
0.023529
0.017647
0.062745
0.10392
0.1098
0.058824
0.1098
0.17843
0.24902
0.26471
0.22353
0.16863
0.15882
0.16863
0.17451
0.16863
0.17843
0.17451
0.17843
0.17843
0.18824
0.18824
0.19412
0.18824
0.19412
0.18824
0.19412
0.19412
0.19412
0.20392
0.2
0.20392
0.20392
0.21373
0.21373
0.22941
0.22353
0.22941
0.22941
0.23922
0.23922
0.2451
0.2451
0.24902
0.24902
0.2549
0.24902
0.24902
0.24902
0.24902
0.24902
0.2451
0.23922
0.23333
0.22941
0.22941
0.22941
0.22353
0.21961
0.21373
0.21961
0.20392
0.2098
0.20392
0.20392
0.2
0.20392
0.18824
0.19412
0.18824
0.19412
0.18824
0.19412
0.18824
0.2
0.20392
0.20392
0.20392
0.2
0.20392
0.20392
0.20392
0.20392
0.2098
0.20392
0.2098
0.2098
0.21373
0.2098
0.21961
0.2098
0.21961
0.2098
0.22353
0.21961
0.22941
0.23333
0.23333
0.22353
0.22941
0.23922
0.24902
0.25882
0.26471
0.2549
0.24902
0.23922
0.22941
0.21961
0.19412
0.11373
0.14314
0.18431
0.18431
0.17451
0.11961
0.068627
0.033333
0.029412
0.052941
0.088235
0.1098
0.062745
0.052941
0.14314
0.21961
0.26863
0.27451
0.2098
0.17843
0.18431
0.18824
0.19412
0.19412
0.18824
0.2
0.19412
0.2
0.19412
0.20392
0.19412
0.2
0.2
0.20392
0.20392
0.20392
0.2
0.20392
0.20392
0.2098
0.21373
0.22353
0.22941
0.22941
0.23333
0.2451
0.24902
0.2451
0.24902
0.24902
0.2549
0.24902
0.2549
0.24902
0.25882
0.24902
0.2549
0.24902
0.2549
0.24902
0.24902
0.2451
0.2451
0.23922
0.23922
0.22941
0.22941
0.21373
0.2098
0.21373
0.20392
0.20392
0.2
0.19412
0.18824
0.19412
0.18431
0.18824
0.17843
0.18824
0.18431
0.18824
0.18824
0.19412
0.19412
0.20392
0.20392
0.20392
0.20392
0.20392
0.20392
0.20392
0.20392
0.20392
0.20392
0.20392
0.20392
0.20392
0.20392
0.20392
0.21961
0.21961
0.22353
0.22353
0.23333
0.22941
0.22941
0.22941
0.24902
0.24902
0.26471
0.25882
0.24902
0.23922
0.22941
0.21961
0.17451
0.13333
0.18431
0.2
0.18431
0.14314
0.07451
0.033333
0.013725
0.033333
0.068627
0.1098
0.078431
0.058824
0.11373
0.2
0.2549
0.27843
0.22941
0.18431
0.17843
0.18824
0.18431
0.18824
0.18431
0.19412
0.2
0.19412
0.2
0.20392
0.20392
0.20392
0.20392
0.2
0.20392
0.2
0.20392
0.20392
0.2098
0.2098
0.21961
0.21961
0.22941
0.22941
0.22941
0.23333
0.24902
0.2451
0.24902
0.24902
0.2549
0.25882
0.2549
0.26471
0.25882
0.2549
0.24902
0.24902
0.24902
0.24902
0.2451
0.24902
0.23922
0.23922
0.22941
0.23333
0.22353
0.21961
0.2098
0.2098
0.20392
0.20392
0.18824
0.2
0.19412
0.19412
0.18824
0.18824
0.19412
0.18431
0.19412
0.19412
0.2
0.19412
0.20392
0.20392
0.20392
0.20392
0.2098
0.2098
0.21961
0.2098
0.21961
0.21373
0.21961
0.2098
0.21961
0.21373
0.21961
0.21373
0.21961
0.21961
0.22941
0.22353
0.23333
0.23922
0.23333
0.22941
0.22941
0.23922
0.2549
0.27451
0.27451
0.25882
0.24902
0.24902
0.22941
0.22353
0.2098
0.12353
0.11373
0.19412
0.18824
0.18431
0.12941
0.078431
0.04902
0.039216
0.07451
0.10392
0.12353
0.078431
0.10392
0.16471
0.24902
0.28431
0.2902
0.20392
0.17843
0.17843
0.18824
0.18431
0.19412
0.18824
0.2
0.19412
0.2
0.20392
0.2
0.20392
0.20392
0.20392
0.20392
0.2098
0.20392
0.21373
0.2098
0.21373
0.21373
0.22353
0.22353
0.22941
0.23333
0.23333
0.23333
0.2451
0.2451
0.2549
0.2549
0.25882
0.2549
0.26471
0.25882
0.26471
0.2549
0.25882
0.2549
0.24902
0.2549
0.2451
0.24902
0.2451
0.23922
0.22941
0.22941
0.21961
0.22353
0.21373
0.21373
0.20392
0.2098
0.20392
0.20392
0.2
0.2
0.18824
0.2
0.2
0.20392
0.20392
0.2
0.20392
0.20392
0.2098
0.20392
0.2098
0.20392
0.2098
0.20392
0.2098
0.2098
0.21961
0.21373
0.21961
0.21373
0.21373
0.21373
0.21961
0.21373
0.22353
0.21961
0.22941
0.23333
0.23922
0.22941
0.22941
0.23333
0.24902
0.26863
0.27451
0.26863
0.25882
0.24902
0.2451
0.22941
0.21373
0.14314
0.11961
0.18431
0.18824
0.18431
0.1549
0.098039
0.058824
0.039216
0.052941
0.094118
0.12941
0.10392
0.078431
0.14314
0.21961
0.27451
0.2902
0.22353
0.17843
0.17451
0.18824
0.18431
0.19412
0.18824
0.19412
0.18824
0.2
0.19412
0.20392
0.2
0.20392
0.2
0.20392
0.20392
0.20392
0.20392
0.2098
0.21373
0.21373
0.21373
0.21961
0.22353
0.22353
0.22941
0.23922
0.2451
0.2451
0.24902
0.24902
0.2549
0.25882
0.26471
0.2549
0.25882
0.2549
0.26471
0.25882
0.26471
0.24902
0.24902
0.2451
0.2451
0.23922
0.23333
0.22941
0.22941
0.22353
0.21961
0.22353
0.2098
0.21961
0.2098
0.20392
0.20392
0.20392
0.2
0.2
0.19412
0.19412
0.19412
0.2
0.2
0.20392
0.20392
0.2098
0.2098
0.21961
0.2098
0.21373
0.2098
0.21373
0.21961
0.2098
0.21961
0.21373
0.22353
0.21961
0.22353
0.21373
0.21961
0.21961
0.22941
0.22941
0.23922
0.23333
0.22941
0.22353
0.2451
0.24902
0.26863
0.25882
0.24902
0.2451
0.2451
0.22941
0.22353
0.2098
0.11961
0.11373
0.18824
0.19412
0.17451
0.11961
0.058824
0.029412
0.013725
0.043137
0.068627
0.094118
0.039216
0.033333
0.11373
0.2098
0.25882
0.27451
0.2098
0.18431
0.18824
0.18824
0.19412
0.18824
0.2
0.19412
0.20392
0.2
0.20392
0.2
0.20392
0.20392
0.20392
0.20392
0.20392
0.20392
0.20392
0.20392
0.2098
0.2098
0.21961
0.22353
0.22941
0.22941
0.23922
0.2451
0.24902
0.24902
0.24902
0.2549
0.25882
0.26471
0.2549
0.25882
0.25882
0.26471
0.2549
0.25882
0.24902
0.2549
0.23922
0.2451
0.23922
0.23333
0.22941
0.22941
0.21961
0.22353
0.21373
0.21373
0.20392
0.20392
0.2
0.2
0.18824
0.18824
0.18431
0.18431
0.18824
0.18431
0.18824
0.18824
0.19412
0.18824
0.2
0.19412
0.20392
0.20392
0.20392
0.2
0.20392
0.20392
0.20392
0.20392
0.20392
0.20392
0.20392
0.20392
0.2098
0.21373
0.2098
0.22353
0.21373
0.22941
0.22941
0.22353
0.21961
0.23333
0.2451
0.26471
0.25882
0.26863
0.24902
0.23922
0.22353
0.21961
0.20392
0.13333
0.1098
0.18431
0.18824
0.17843
0.12353
0.062745
0.029412
0.013725
0.043137
0.078431
0.10392
0.068627
0.062745
0.13922
0.21961
0.26471
0.27451
0.2098
0.17843
0.17843
0.18431
0.17843
0.18431
0.18431
0.18824
0.18431
0.2
0.18824
0.2
0.19412
0.2
0.19412
0.2
0.20392
0.19412
0.20392
0.2
0.20392
0.20392
0.2098
0.2098
0.22353
0.21961
0.22941
0.22941
0.23922
0.23333
0.2451
0.2451
0.24902
0.24902
0.24902
0.2451
0.24902
0.24902
0.24902
0.2451
0.2451
0.23922
0.23333
0.22941
0.22941
0.22941
0.22353
0.21961
0.2098
0.21373
0.20392
0.20392
0.19412
0.2
0.18824
0.19412
0.17843
0.18431
0.17843
0.18431
0.17843
0.18431
0.17843
0.18824
0.18824
0.19412
0.18824
0.19412
0.2
0.19412
0.20392
0.2
0.20392
0.2
0.20392
0.2
0.20392
0.2
0.20392
0.2
0.20392
0.2
0.20392
0.20392
0.2098
0.21961
0.22353
0.21373
0.2098
0.21961
0.22941
0.24902
0.2549
0.26471
0.2451
0.23333
0.22353
0.2098
0.2
0.20392
0.10392
0.1549
0.17451
0.17843
0.14902
0.098039
0.04902
0.029412
0.017647
0.062745
0.094118
0.1098
0.052941
0.10392
0.16863
0.2451
0.27451
0.23333
0.17451
0.15882
0.16863
0.16863
0.17451
0.17451
0.17843
0.17451
0.17843
0.17451
0.17843
0.17451
0.17843
0.17843
0.18431
0.17843
0.18431
0.18824
0.18431
0.18824
0.19412
0.2
0.19412
0.20392
0.2098
0.21373
0.21961
0.22353
0.22941
0.22941
0.22941
0.23922
0.23333
0.23922
0.23333
0.2451
0.23922
0.2451
0.23333
0.23333
0.22941
0.23333
0.22941
0.22941
0.22353
0.22353
0.21373
0.21373
0.20392
0.20392
0.2
0.19412
0.2
0.18431
0.17843
0.17843
0.18431
0.17843
0.18431
0.17843
0.18431
0.18431
0.18824
0.18824
0.2
0.19412
0.2
0.2
0.20392
0.2
0.20392
0.20392
0.2
0.20392
0.2
0.20392
0.20392
0.20392
0.2
0.20392
0.20392
0.2098
0.20392
0.21373
0.2098
0.22941
0.22941
0.21961
0.21961
0.22941
0.23922
0.25882
0.26471
0.2549
0.23333
0.22941
0.21961
0.2098
0.20392
0.11373
0.1098
0.17843
0.18431
0.16863
0.12353
0.068627
0.033333
0.017647
0.043137
0.078431
0.11373
0.062745
0.052941
0.12353
0.21961
0.2549
0.26863
0.20392
0.17843
0.17843
0.18824
0.18824
0.19412
0.2
0.2
0.20392
0.2
0.20392
0.20392
0.2
0.2
0.20392
0.2
0.20392
0.2
0.20392
0.20392
0.2098
0.2098
0.21961
0.21961
0.22941
0.22941
0.22941
0.22941
0.23922
0.2451
0.24902
0.2549
0.24902
0.25882
0.2549
0.25882
0.2549
0.25882
0.2549
0.25882
0.24902
0.24902
0.24902
0.24902
0.23922
0.2451
0.22941
0.22941
0.21373
0.21961
0.20392
0.2098
0.20392
0.2
0.19412
0.19412
0.18824
0.18824
0.18824
0.18824
0.18431
0.18824
0.18824
0.18431
0.19412
0.19412
0.2
0.19412
0.20392
0.2
0.20392
0.2
0.20392
0.20392
0.20392
0.20392
0.20392
0.20392
0.20392
0.20392
0.20392
0.20392
0.20392
0.20392
0.21373
0.21961
0.22941
0.22941
0.22353
0.22941
0.22353
0.2451
0.24902
0.25882
0.24902
0.2451
0.23922
0.22941
0.21961
0.2098
0.13333
0.1098
0.17451
0.17843
0.16863
0.12941
0.052941
0.023529
0.013725
0.033333
0.062745
0.098039
0.058824
0.039216
0.11961
0.2
0.25882
0.27451
0.23333
0.18824
0.2
0.19412
0.2
0.19412
0.2
0.19412
0.20392
0.20392
0.2098
0.2098
0.2098
0.20392
0.20392
0.2098
0.2098
0.21373
0.2098
0.21961
0.21961
0.22353
0.22353
0.23333
0.23333
0.23922
0.23333
0.24902
0.2549
0.26471
0.25882
0.27451
0.26863
0.27451
0.27451
0.27451
0.27451
0.27451
0.26863
0.26863
0.26863
0.26471
0.26863
0.2549
0.24902
0.24902
0.24902
0.2451
0.24902
0.23333
0.22941
0.22353
0.22353
0.21373
0.21961
0.20392
0.2098
0.20392
0.20392
0.20392
0.20392
0.20392
0.20392
0.20392
0.20392
0.2098
0.20392
0.21373
0.21961
0.22353
0.21373
0.22353
0.21961
0.22941
0.21961
0.22941
0.22353
0.22941
0.22941
0.22353
0.21961
0.22353
0.22353
0.23333
0.22941
0.24902
0.24902
0.24902
0.23333
0.2451
0.24902
0.26863
0.27843
0.27843
0.26863
0.24902
0.2451
0.22941
0.22941
0.20392
0.13333
0.16863
0.20392
0.19412
0.17451
0.11373
0.07451
0.043137
0.039216
0.078431
0.11961
0.12941
0.084314
0.12941
0.2
0.26863
0.2902
0.2549
0.19412
0.18431
0.18824
0.19412
0.18431
0.18824
0.19412
0.2
0.19412
0.20392
0.2
0.20392
0.20392
0.2098
0.2098
0.21373
0.2098
0.21961
0.21373
0.22353
0.22353
0.22353
0.22941
0.22941
0.23333
0.2451
0.24902
0.24902
0.2549
0.24902
0.26863
0.26471
0.27451
0.26863
0.27451
0.27451
0.27451
0.26863
0.27451
0.25882
0.25882
0.2549
0.2549
0.2451
0.2451
0.23333
0.23333
0.22941
0.22941
0.22353
0.21961
0.22353
0.2098
0.20392
0.20392
0.20392
0.2
0.20392
0.2
0.20392
0.20392
0.20392
0.2
0.20392
0.20392
0.2098
0.20392
0.2098
0.2098
0.21961
0.21373
0.21373
0.21961
0.2098
0.21961
0.21373
0.21961
0.21373
0.22353
0.21961
0.22941
0.22353
0.22941
0.22353
0.22941
0.23333
0.2451
0.23333
0.23333
0.23333
0.2549
0.26471
0.27843
0.26863
0.26471
0.2549
0.24902
0.23333
0.22941
0.18431
0.13333
0.19412
0.20392
0.20392
0.17451
0.11373
0.062745
0.043137
0.039216
0.084314
0.12353
0.12941
0.084314
0.13922
0.20392
0.27451
0.28431
0.23922
0.17843
0.17451
0.18824
0.18824
0.19412
0.18824
0.2
0.19412
0.20392
0.2
0.2098
0.20392
0.2098
0.20392
0.2098
0.20392
0.2098
0.20392
0.21373
0.21373
0.22353
0.21961
0.22941
0.22941
0.22941
0.22941
0.23922
0.2451
0.24902
0.24902
0.2549
0.24902
0.2549
0.26471
0.2549
0.26471
0.25882
0.26471
0.2549
0.25882
0.24902
0.24902
0.24902
0.24902
0.23922
0.2451
0.23333
0.22941
0.22353
0.22353
0.21961
0.21961
0.21373
0.2098
0.21373
0.2098
0.20392
0.2
0.20392
0.2
0.20392
0.2
0.20392
0.20392
0.2098
0.20392
0.20392
0.20392
0.2098
0.2098
0.21961
0.2098
0.21373
0.2098
0.21373
0.21373
0.21961
0.2098
0.21961
0.21373
0.2098
0.21961
0.21373
0.22353
0.22941
0.23333
0.22941
0.23333
0.22941
0.23922
0.24902
0.26863
0.26471
0.26863
0.24902
0.24902
0.23333
0.22353
0.20392
0.13922
0.11961
0.17843
0.18431
0.17843
0.13333
0.068627
0.029412
0.017647
0.043137
0.068627
0.094118
0.052941
0.039216
0.1098
0.20392
0.26471
0.2902
0.22941
0.19412
0.19412
0.20392
0.20392
0.20392
0.20392
0.2098
0.20392
0.2098
0.20392
0.2098
0.2098
0.2098
0.21373
0.21373
0.21961
0.21373
0.21961
0.22353
0.22941
0.22941
0.22941
0.22941
0.23922
0.2451
0.24902
0.24902
0.25882
0.25882
0.27451
0.26863
0.27451
0.27451
0.27451
0.27451
0.27451
0.27451
0.27451
0.27451
0.26863
0.26471
0.25882
0.26471
0.2549
0.24902
0.24902
0.2451
0.23922
0.23922
0.22941
0.22353
0.21961
0.21373
0.20392
0.2098
0.20392
0.20392
0.20392
0.20392
0.19412
0.20392
0.2
0.19412
0.20392
0.2
0.20392
0.20392
0.2098
0.20392
0.21373
0.2098
0.2098
0.20392
0.2098
0.2098
0.2098
0.2098
0.21373
0.2098
0.21961
0.2098
0.21961
0.22353
0.22941
0.23922
0.2451
0.24902
0.23922
0.23922
0.24902
0.25882
0.27451
0.27843
0.26471
0.2549
0.24902
0.23922
0.22353
0.2098
0.11961
0.17451
0.2
0.2
0.16471
0.1098
0.052941
0.033333
0.029412
0.068627
0.094118
0.1098
0.058824
0.098039
0.16471
0.2451
0.27843
0.2549
0.2
0.17843
0.2
0.2
0.20392
0.2
0.20392
0.2
0.20392
0.2
0.20392
0.20392
0.20392
0.20392
0.20392
0.20392
0.20392
0.20392
0.20392
0.20392
0.2098
0.21373
0.2098
0.22353
0.22353
0.22941
0.22941
0.23333
0.23922
0.24902
0.2451
0.24902
0.2451
0.24902
0.24902
0.2549
0.24902
0.24902
0.24902
0.24902
0.24902
0.24902
0.23333
0.23922
0.22941
0.22941
0.22941
0.22941
0.22353
0.21373
0.21961
0.2098
0.2098
0.20392
0.20392
0.2
0.19412
0.18824
0.19412
0.18824
0.18824
0.18431
0.19412
0.19412
0.2
0.2
0.20392
0.20392
0.2098
0.2098
0.21373
0.2098
0.2098
0.21373
0.20392
0.2098
0.2098
0.21373
0.2098
0.21373
0.20392
0.2098
0.2098
0.21373
0.21373
0.22941
0.22353
0.22353
0.21373
0.22941
0.23922
0.25882
0.26471
0.25882
0.23922
0.23333
0.22353
0.21373
0.20392
0.13922
0.11373
0.17451
0.17843
0.17451
0.13333
0.07451
0.039216
0.017647
0.039216
0.068627
0.1098
0.07451
0.062745
0.12353
0.20392
0.2549
0.27451
0.2098
0.15882
0.16471
0.16471
0.16863
0.16471
0.17451
0.17451
0.17843
0.17451
0.17843
0.17843
0.17843
0.17843
0.17843
0.17843
0.18431
0.17843
0.18431
0.17843
0.18824
0.19412
0.2
0.2
0.20392
0.2098
0.21961
0.22353
0.22353
0.22941
0.22353
0.22941
0.23333
0.23922
0.2451
0.24902
0.23922
0.2451
0.23922
0.2451
0.23333
0.23922
0.22941
0.22941
0.22941
0.22353
0.21373
0.21373
0.20392
0.20392
0.19412
0.18824
0.19412
0.18824
0.19412
0.18431
0.17843
0.17843
0.17451
0.16863
0.17843
0.17451
0.17843
0.17843
0.17843
0.17843
0.18431
0.18431
0.18824
0.18431
0.2
0.19412
0.2
0.19412
0.20392
0.2
0.2
0.20392
0.2
0.20392
0.20392
0.20392
0.2098
0.21373
0.2098
0.21961
0.21961
0.22353
0.2098
0.21373
0.22353
0.23333
0.24902
0.24902
0.23922
0.22941
0.21961
0.21373
0.2
0.19412
0.1098
0.10392
0.17451
0.17843
0.16471
0.12353
0.068627
0.039216
0.023529
0.04902
0.084314
0.1098
0.068627
0.062745
0.13922
0.21961
0.26471
0.27451
0.20392
0.16471
0.17843
0.17451
0.17843
0.16863
0.17843
0.17843
0.17843
0.17843
0.18431
0.17843
0.17843
0.18431
0.18824
0.19412
0.18824
0.2
0.19412
0.2
0.19412
0.20392
0.2
0.20392
0.2098
0.21961
0.21961
0.22941
0.22941
0.23922
0.2451
0.23922
0.24902
0.2549
0.2549
0.2549
0.24902
0.24902
0.2549
0.24902
0.2451
0.23922
0.2451
0.23333
0.23333
0.22941
0.22353
0.21961
0.21961
0.20392
0.2098
0.2
0.20392
0.19412
0.19412
0.18824
0.19412
0.18431
0.18824
0.17843
0.18824
0.18431
0.17843
0.18824
0.18431
0.19412
0.19412
0.20392
0.2
0.20392
0.20392
0.2098
0.20392
0.21373
0.2098
0.21373
0.2098
0.21961
0.2098
0.21961
0.2098
0.21373
0.2098
0.21961
0.21961
0.22941
0.22941
0.23333
0.23922
0.22941
0.23333
0.2451
0.2549
0.25882
0.26863
0.2451
0.23922
0.22353
0.21373
0.20392
0.15882
0.11961
0.17843
0.17843
0.17843
0.12941
0.068627
0.023529
0.013725
0.029412
0.062745
0.094118
0.062745
0.04902
0.11961
0.19412
0.25882
0.27843
0.23333
0.18824
0.18431
0.2
0.19412
0.2
0.19412
0.20392
0.2
0.20392
0.2
0.20392
0.2
0.20392
0.2
0.20392
0.20392
0.20392
0.2098
0.20392
0.21961
0.21961
0.22353
0.22941
0.23333
0.23922
0.24902
0.24902
0.2549
0.24902
0.26471
0.26471
0.27451
0.26863
0.27451
0.26863
0.27451
0.27451
0.27451
0.26471
0.26863
0.25882
0.26471
0.24902
0.24902
0.24902
0.2451
0.24902
0.23333
0.23922
0.22941
0.22941
0.22353
0.22941
0.21961
0.21961
0.21373
0.21961
0.2098
0.2098
0.20392
0.20392
0.20392
0.2098
0.2098
0.21373
0.21961
0.22353
0.21373
0.21961
0.22353
0.21961
0.22941
0.22353
0.22941
0.22941
0.23333
0.22941
0.22941
0.22941
0.22941
0.22941
0.23333
0.23333
0.24902
0.24902
0.25882
0.2549
0.2549
0.2549
0.26471
0.27451
0.29412
0.3
0.2902
0.27451
0.26471
0.24902
0.2451
0.2451
0.1549
0.14314
0.21373
0.21961
0.20392
0.16863
0.1098
0.078431
0.062745
0.094118
0.12353
0.1549
0.10392
0.098039
0.17843
0.26471
0.30392
0.31373
0.23922
0.21373
0.22353
0.22941
0.22353
0.21961
0.22941
0.22941
0.23333
0.22941
0.23922
0.23333
0.2451
0.23922
0.24902
0.2451
0.24902
0.24902
0.24902
0.24902
0.25882
0.26471
0.25882
0.26863
0.27451
0.28431
0.2902
0.29412
0.3
0.30392
0.3098
0.31373
0.3098
0.31961
0.31373
0.31961
0.31961
0.31961
0.31373
0.31373
0.30392
0.3098
0.3
0.30392
0.29412
0.29412
0.2902
0.28431
0.27843
0.27451
0.26863
0.26471
0.25882
0.2549
0.25882
0.24902
0.2549
0.24902
0.24902
0.2451
0.24902
0.2451
0.24902
0.24902
0.24902
0.2451
0.24902
0.24902
0.2549
0.24902
0.24902
0.24902
0.2549
0.24902
0.24902
0.2549
0.24902
0.2549
0.24902
0.24902
0.24902
0.24902
0.24902
0.2549
0.24902
0.26471
0.26471
0.26471
0.24902
0.2549
0.25882
0.27451
0.2902
0.3
0.28431
0.27451
0.26471
0.2549
0.23333
0.22941
0.16471
0.13333
0.20392
0.20392
0.2
0.15882
0.098039
0.062745
0.052941
0.07451
0.1098
0.13333
0.094118
0.084314
0.16471
0.23922
0.29412
0.3
0.21961
0.17843
0.19412
0.19412
0.2
0.19412
0.2
0.20392
0.2
0.20392
0.20392
0.20392
0.20392
0.20392
0.2
0.20392
0.20392
0.20392
0.20392
0.21373
0.21373
0.22353
0.21961
0.22941
0.22941
0.22941
0.22941
0.23333
0.23333
0.2451
0.2451
0.24902
0.24902
0.24902
0.2549
0.2549
0.24902
0.2451
0.24902
0.24902
0.24902
0.24902
0.2451
0.23333
0.23333
0.22941
0.22941
0.21961
0.22353
0.21373
0.21961
0.20392
0.2098
0.20392
0.20392
0.2
0.2
0.19412
0.18824
0.19412
0.18824
0.19412
0.18824
0.2
0.18824
0.20392
0.2
0.20392
0.20392
0.20392
0.20392
0.2098
0.2098
0.21373
0.2098
0.21961
0.2098
0.21373
0.2098
0.21961
0.2098
0.21373
0.2098
0.21373
0.21961
0.22353
0.22941
0.22941
0.22353
0.22353
0.23922
0.24902
0.26863
0.26471
0.2549
0.24902
0.23922
0.22941
0.21961
0.20392
0.13333
0.1098
0.17843
0.18431
0.17451
0.11373
0.058824
0.017647
0.0078431
0.033333
0.062745
0.088235
0.043137
0.033333
0.1098
0.19412
0.2549
0.27451
0.2098
0.17843
0.17843
0.18824
0.18431
0.19412
0.18431
0.18824
0.18431
0.19412
0.18824
0.2
0.18824
0.19412
0.19412
0.19412
0.2
0.19412
0.20392
0.20392
0.2098
0.2098
0.21373
0.2098
0.22353
0.22941
0.23333
0.23333
0.24902
0.24902
0.24902
0.24902
0.2549
0.2549
0.2549
0.24902
0.25882
0.2549
0.2549
0.24902
0.24902
0.2451
0.24902
0.23333
0.23333
0.22941
0.22941
0.22353
0.21961
0.21373
0.2098
0.21373
0.20392
0.20392
0.20392
0.2
0.19412
0.19412
0.18824
0.19412
0.18431
0.18431
0.18431
0.18824
0.19412
0.18824
0.2
0.19412
0.20392
0.2
0.20392
0.20392
0.20392
0.20392
0.20392
0.20392
0.2098
0.2098
0.21373
0.2098
0.21373
0.2098
0.21373
0.21373
0.22353
0.22353
0.23922
0.2451
0.23333
0.22941
0.23922
0.24902
0.26863
0.27451
0.26471
0.24902
0.2451
0.22941
0.21961
0.21373
0.13922
0.1098
0.17451
0.18824
0.17451
0.13333
0.062745
0.033333
0.017647
0.043137
0.068627
0.1098
0.068627
0.062745
0.13922
0.22353
0.26863
0.27451
0.21961
0.17843
0.18431
0.18431
0.18824
0.18824
0.19412
0.18824
0.19412
0.19412
0.2
0.19412
0.2
0.19412
0.2
0.2
0.20392
0.2
0.20392
0.20392
0.20392
0.2098
0.21373
0.21961
0.22941
0.22941
0.23333
0.2451
0.2451
0.24902
0.2451
0.24902
0.24902
0.2549
0.24902
0.25882
0.2549
0.25882
0.24902
0.24902
0.24902
0.24902
0.23922
0.23922
0.22941
0.23333
0.22941
0.22941
0.21961
0.21373
0.2098
0.20392
0.2098
0.20392
0.20392
0.2
0.18824
0.18431
0.18824
0.18431
0.18431
0.18824
0.19412
0.19412
0.2
0.19412
0.2
0.2
0.20392
0.2
0.20392
0.2
0.20392
0.20392
0.2
0.20392
0.20392
0.20392
0.2
0.20392
0.20392
0.2098
0.20392
0.21373
0.2098
0.21961
0.22353
0.22941
0.21961
0.21373
0.21961
0.23922
0.24902
0.26471
0.24902
0.2451
0.23333
0.22941
0.2098
0.20392
0.12941
0.10392
0.16863
0.17843
0.17451
0.13922
0.084314
0.039216
0.023529
0.033333
0.07451
0.1098
0.084314
0.062745
0.13333
0.20392
0.26863
0.27451
0.21961
0.16471
0.17451
0.17843
0.17843
0.17843
0.17843
0.17843
0.17843
0.18431
0.17843
0.18431
0.18431
0.19412
0.18824
0.2
0.19412
0.2
0.2
0.20392
0.20392
0.2098
0.20392
0.21373
0.21373
0.22941
0.22941
0.23333
0.23922
0.2451
0.2451
0.23922
0.24902
0.24902
0.2549
0.24902
0.24902
0.2451
0.24902
0.2451
0.24902
0.23922
0.23922
0.23333
0.22941
0.22353
0.22353
0.21373
0.21373
0.20392
0.20392
0.20392
0.2
0.19412
0.2
0.18431
0.18824
0.19412
0.18431
0.18824
0.18431
0.19412
0.18431
0.19412
0.18824
0.19412
0.18824
0.19412
0.18824
0.19412
0.19412
0.20392
0.2
0.20392
0.20392
0.20392
0.20392
0.20392
0.20392
0.20392
0.20392
0.20392
0.20392
0.20392
0.2098
0.20392
0.22941
0.22941
0.22941
0.21961
0.22941
0.2451
0.25882
0.26471
0.26863
0.2549
0.24902
0.23333
0.22941
0.2098
0.2
0.11373
0.16471
0.18431
0.18431
0.15882
0.1098
0.058824
0.033333
0.039216
0.07451
0.1098
0.11373
0.062745
0.11373
0.18431
0.24902
0.27843
0.23922
0.18824
0.17451
0.18431
0.17843
0.18431
0.18431
0.18824
0.18431
0.18824
0.18431
0.18824
0.18431
0.19412
0.18824
0.19412
0.18824
0.18824
0.2
0.2
0.20392
0.2
0.20392
0.20392
0.21373
0.21373
0.22941
0.22941
0.23922
0.23333
0.2451
0.23922
0.24902
0.24902
0.24902
0.24902
0.24902
0.24902
0.2549
0.24902
0.24902
0.24902
0.2451
0.23922
0.23333
0.23922
0.22353
0.21961
0.21373
0.21961
0.2098
0.20392
0.19412
0.19412
0.18824
0.19412
0.18431
0.18824
0.17843
0.18431
0.17843
0.18431
0.18431
0.18431
0.18824
0.19412
0.18824
0.18824
0.19412
0.2
0.20392
0.20392
0.20392
0.20392
0.20392
0.20392
0.2098
0.20392
0.2098
0.20392
0.2098
0.20392
0.2098
0.20392
0.21373
0.21961
0.22353
0.22941
0.23333
0.23922
0.22941
0.22941
0.2451
0.2549
0.26471
0.26863
0.2451
0.24902
0.22941
0.22353
0.2098
0.16471
0.11373
0.17451
0.17843
0.17843
0.12941
0.068627
0.013725
-0.0019608
0.013725
0.058824
0.088235
0.062745
0.043137
0.10392
0.18431
0.2549
0.27843
0.23333
0.18824
0.17843
0.19412
0.18824
0.19412
0.18824
0.19412
0.18824
0.20392
0.2
0.20392
0.2
0.20392
0.20392
0.20392
0.20392
0.20392
0.20392
0.20392
0.2098
0.20392
0.21961
0.21373
0.22941
0.22941
0.23922
0.23922
0.24902
0.2451
0.24902
0.24902
0.25882
0.24902
0.2549
0.2549
0.25882
0.24902
0.24902
0.24902
0.24902
0.24902
0.24902
0.23922
0.23922
0.2451
0.23333
0.22941
0.22941
0.22941
0.22941
0.21961
0.21373
0.21961
0.20392
0.2098
0.2
0.20392
0.19412
0.2
0.18824
0.2
0.18824
0.2
0.19412
0.20392
0.20392
0.20392
0.20392
0.20392
0.2098
0.20392
0.2098
0.20392
0.2098
0.20392
0.2098
0.20392
0.2098
0.20392
0.2098
0.2098
0.2098
0.2098
0.21373
0.21961
0.22941
0.22941
0.22941
0.22941
0.22941
0.23922
0.25882
0.26863
0.26863
0.24902
0.2451
0.23333
0.22941
0.21961
0.16863
0.12941
0.17843
0.2
0.18431
0.15882
0.088235
0.052941
0.029412
0.043137
0.07451
0.11961
0.088235
0.068627
0.12353
0.20392
0.25882
0.27843
0.22353
0.17843
0.17451
0.17843
0.17843
0.17843
0.18824
0.18824
0.19412
0.18824
0.19412
0.18824
0.19412
0.18824
0.2
0.2
0.20392
0.20392
0.2098
0.20392
0.2098
0.21373
0.22353
0.22353
0.22941
0.22941
0.22941
0.23922
0.2451
0.24902
0.24902
0.2549
0.24902
0.25882
0.24902
0.25882
0.2549
0.2549
0.24902
0.24902
0.24902
0.24902
0.2451
0.24902
0.23922
0.23922
0.23333
0.23922
0.22353
0.22353
0.21373
0.21373
0.2098
0.20392
0.2098
0.20392
0.20392
0.2
0.20392
0.19412
0.2
0.19412
0.2
0.2
0.20392
0.2
0.20392
0.20392
0.21373
0.2098
0.21373
0.21373
0.21961
0.21373
0.21961
0.21373
0.21373
0.21373
0.2098
0.21961
0.20392
0.2098
0.21373
0.21961
0.21373
0.22353
0.22941
0.23922
0.23333
0.22941
0.22941
0.2451
0.24902
0.27451
0.27843
0.26863
0.24902
0.2549
0.23333
0.22941
0.20392
0.12353
0.14314
0.19412
0.2
0.17843
0.13922
0.078431
0.052941
0.039216
0.068627
0.098039
0.12353
0.084314
0.10392
0.16471
0.2451
0.27843
0.29412
0.2098
0.17843
0.18431
0.18824
0.18431
0.18824
0.19412
0.2
0.20392
0.2
0.20392
0.2
0.20392
0.20392
0.20392
0.20392
0.20392
0.20392
0.2098
0.2098
0.21373
0.21373
0.22353
0.22353
0.22941
0.23333
0.2451
0.2451
0.24902
0.24902
0.24902
0.2549
0.25882
0.25882
0.26471
0.25882
0.26471
0.25882
0.25882
0.26471
0.2549
0.2549
0.24902
0.24902
0.2451
0.24902
0.23333
0.23333
0.22941
0.22941
0.22353
0.21961
0.21373
0.21961
0.21373
0.2098
0.20392
0.20392
0.20392
0.20392
0.20392
0.20392
0.20392
0.20392
0.2098
0.20392
0.2098
0.20392
0.21373
0.2098
0.21961
0.21373
0.22353
0.21373
0.22353
0.22353
0.22941
0.22941
0.22941
0.21961
0.22353
0.22353
0.21961
0.22941
0.22353
0.22941
0.23922
0.24902
0.23922
0.23333
0.23922
0.2549
0.26471
0.27451
0.27451
0.26471
0.24902
0.2451
0.22941
0.22353
0.2
0.11961
0.16863
0.19412
0.18824
0.16471
0.098039
0.052941
0.029412
0.023529
0.062745
0.098039
0.10392
0.043137
0.094118
0.16471
0.2451
0.27843
0.24902
0.19412
0.18824
0.2
0.20392
0.19412
0.20392
0.20392
0.2098
0.20392
0.2098
0.20392
0.2098
0.20392
0.2098
0.21961
0.21373
0.22353
0.21961
0.22353
0.21961
0.22353
0.21961
0.22941
0.22941
0.23922
0.23922
0.2549
0.24902
0.25882
0.25882
0.27451
0.26863
0.27451
0.26863
0.27451
0.26863
0.27451
0.26471
0.26863
0.26471
0.25882
0.2549
0.2549
0.24902
0.24902
0.24902
0.23922
0.2451
0.22941
0.23333
0.21961
0.22353
0.21373
0.21373
0.20392
0.20392
0.2
0.20392
0.19412
0.2
0.18824
0.2
0.19412
0.20392
0.2
0.2
0.20392
0.20392
0.20392
0.20392
0.2098
0.20392
0.2098
0.2098
0.21373
0.2098
0.21961
0.21961
0.21961
0.21961
0.22353
0.21373
0.22353
0.22353
0.22941
0.22941
0.23333
0.23922
0.23922
0.23922
0.24902
0.2549
0.26471
0.27451
0.26471
0.24902
0.2451
0.23333
0.22353
0.21961
0.14314
0.11373
0.17843
0.19412
0.17843
0.14314
0.068627
0.039216
0.017647
0.043137
0.078431
0.11373
0.078431
0.062745
0.13922
0.21961
0.26863
0.27843
0.22941
0.17843
0.18431
0.18431
0.18824
0.18431
0.19412
0.19412
0.2
0.19412
0.2
0.19412
0.2
0.19412
0.20392
0.2
0.20392
0.20392
0.20392
0.20392
0.20392
0.2098
0.21373
0.21961
0.21373
0.22941
0.22941
0.23922
0.23333
0.24902
0.2451
0.24902
0.24902
0.25882
0.24902
0.2549
0.2549
0.25882
0.24902
0.2549
0.24902
0.2549
0.2451
0.2451
0.23922
0.23333
0.22941
0.22941
0.21961
0.21373
0.21961
0.2098
0.20392
0.20392
0.20392
0.19412
0.2
0.18824
0.18824
0.17843
0.18824
0.17843
0.19412
0.18824
0.19412
0.19412
0.20392
0.2
0.20392
0.2
0.20392
0.20392
0.20392
0.20392
0.20392
0.2098
0.20392
0.2098
0.20392
0.20392
0.20392
0.20392
0.20392
0.2098
0.2098
0.21961
0.22353
0.22941
0.22941
0.22941
0.22353
0.23922
0.24902
0.26471
0.27451
0.24902
0.23922
0.22941
0.21961
0.21373
0.19412
0.11373
0.16863
0.18431
0.18824
0.15882
0.10392
0.052941
0.039216
0.033333
0.078431
0.10392
0.11373
0.062745
0.11961
0.18431
0.2549
0.27451
0.23922
0.17451
0.15882
0.17451
0.16863
0.17843
0.17843
0.18431
0.17843
0.18824
0.17843
0.18824
0.18431
0.19412
0.18431
0.19412
0.18824
0.19412
0.19412
0.2
0.2
0.20392
0.20392
0.2098
0.2098
0.21961
0.21961
0.22941
0.23333
0.22941
0.23922
0.2451
0.24902
0.23922
0.24902
0.2451
0.24902
0.2451
0.2451
0.23333
0.23922
0.23333
0.23333
0.22941
0.23333
0.22941
0.22941
0.21961
0.22353
0.2098
0.2098
0.20392
0.20392
0.2
0.2
0.19412
0.19412
0.18824
0.18431
0.18824
0.18431
0.18824
0.18431
0.18824
0.18431
0.2
0.19412
0.2
0.2
0.20392
0.20392
0.20392
0.20392
0.20392
0.20392
0.20392
0.20392
0.20392
0.20392
0.20392
0.20392
0.20392
0.20392
0.20392
0.20392
0.20392
0.21961
0.22941
0.22941
0.21961
0.22353
0.22941
0.2451
0.25882
0.26863
0.25882
0.24902
0.2451
0.23333
0.21373
0.2098
0.16471
0.1098
0.17451
0.18431
0.17843
0.14902
0.088235
0.052941
0.029412
0.023529
0.068627
0.11373
0.088235
0.068627
0.12941
0.18824
0.25882
0.27451
0.22941
0.16863
0.16471
0.17451
0.17451
0.17451
0.18431
0.18431
0.18824
0.18824
0.18824
0.19412
0.18824
0.19412
0.18431
0.19412
0.19412
0.2
0.20392
0.20392
0.20392
0.21373
0.2098
0.21961
0.21961
0.22941
0.22941
0.22941
0.23333
0.24902
0.24902
0.24902
0.24902
0.2549
0.2549
0.25882
0.24902
0.2549
0.25882
0.24902
0.2549
0.2451
0.24902
0.2451
0.2451
0.23333
0.23922
0.21961
0.22353
0.2098
0.21373
0.20392
0.20392
0.2
0.2
0.19412
0.19412
0.18431
0.18824
0.19412
0.18824
0.19412
0.18824
0.19412
0.18824
0.2
0.2
0.20392
0.20392
0.20392
0.20392
0.20392
0.20392
0.2098
0.20392
0.2098
0.20392
0.21373
0.20392
0.21373
0.2098
0.21373
0.21373
0.21373
0.2098
0.21961
0.22941
0.23922
0.2451
0.23333
0.22941
0.23333
0.24902
0.25882
0.26863
0.25882
0.24902
0.2451
0.23922
0.22353
0.21961
0.16863
0.11961
0.16863
0.18824
0.17843
0.14314
0.068627
0.023529
0.0039216
0.023529
0.062745
0.088235
0.094118
0.039216
0.098039
0.17451
0.2451
0.27451
0.23922
0.18431
0.17843
0.18824
0.19412
0.18824
0.19412
0.18824
0.20392
0.2
0.20392
0.20392
0.20392
0.20392
0.2098
0.20392
0.20392
0.20392
0.20392
0.21373
0.2098
0.21961
0.21373
0.22353
0.22353
0.22941
0.22941
0.23922
0.23922
0.24902
0.24902
0.24902
0.24902
0.25882
0.24902
0.2549
0.24902
0.2549
0.24902
0.24902
0.2451
0.2451
0.2451
0.23922
0.2451
0.23922
0.22941
0.22941
0.22941
0.21961
0.22353
0.2098
0.2098
0.20392
0.20392
0.2
0.2
0.19412
0.2
0.19412
0.2
0.18824
0.2
0.2
0.20392
0.2
0.2
0.20392
0.20392
0.20392
0.20392
0.20392
0.20392
0.2098
0.20392
0.2098
0.20392
0.2098
0.2098
0.2098
0.20392
0.2098
0.2098
0.21373
0.21373
0.22353
0.22353
0.22941
0.22941
0.22353
0.21961
0.22941
0.2451
0.25882
0.26863
0.25882
0.24902
0.2451
0.22941
0.21961
0.2
0.1098
0.14314
0.17843
0.18824
0.17451
0.13333
0.068627
0.043137
0.029412
0.058824
0.088235
0.11373
0.07451
0.068627
0.14902
0.23922
0.27843
0.28431
0.21373
0.17843
0.18824
0.18824
0.18824
0.18431
0.19412
0.18431
0.2
0.19412
0.2
0.19412
0.20392
0.2
0.20392
0.20392
0.20392
0.20392
0.2098
0.20392
0.2098
0.2098
0.21373
0.21961
0.22941
0.22941
0.22941
0.23333
0.23922
0.24902
0.24902
0.2549
0.2549
0.25882
0.2549
0.25882
0.24902
0.2549
0.24902
0.2549
0.24902
0.24902
0.2451
0.2451
0.23333
0.23333
0.22941
0.22353
0.21961
0.21373
0.2098
0.2098
0.20392
0.20392
0.20392
0.2
0.2
0.18824
0.2
0.19412
0.20392
0.19412
0.2
0.19412
0.20392
0.2
0.20392
0.2
0.2098
0.20392
0.20392
0.2098
0.20392
0.21373
0.20392
0.21373
0.21373
0.21373
0.2098
0.21961
0.21373
0.21961
0.21961
0.22941
0.22353
0.22941
0.23333
0.24902
0.2451
0.2451
0.23333
0.24902
0.2549
0.27451
0.27843
0.26471
0.24902
0.24902
0.23333
0.22941
0.20392
0.12353
0.15882
0.2
0.20392
0.17843
0.13333
0.07451
0.058824
0.043137
0.078431
0.11373
0.12941
0.078431
0.11961
0.17451
0.25882
0.2902
0.26471
0.2
0.17843
0.18824
0.18824
0.18431
0.19412
0.18824
0.18431
0.19412
0.19412
0.2
0.19412
0.2
0.20392
0.2
0.2
0.20392
0.20392
0.2098
0.20392
0.22353
0.21373
0.22353
0.21373
0.22941
0.23333
0.2451
0.2451
0.2451
0.24902
0.2549
0.24902
0.25882
0.26471
0.25882
0.2549
0.24902
0.25882
0.2549
0.25882
0.24902
0.24902
0.2451
0.24902
0.22941
0.23333
0.23333
0.22941
0.21961
0.22353
0.21961
0.22353
0.21373
0.2098
0.20392
0.21373
0.2
0.2
0.20392
0.20392
0.20392
0.20392
0.20392
0.19412
0.2098
0.20392
0.21961
0.2098
0.2098
0.20392
0.21961
0.21373
0.22941
0.21373
0.20392
0.20392
0.2098
0.2098
0.21373
0.21373
0.2098
0.21961
0.20392
0.21373
0.21373
0.22941
0.22941
0.23922
0.23333
0.23333
0.2451
0.2549
0.26471
0.27451
0.26471
0.2549
0.24902
0.23922
0.21961
0.21373
0.21961
0.11961
0.18431
0.19412
0.18431
0.14902
0.088235
0.04902
0.029412
0.043137
0.084314
0.11961
0.078431
0.058824
0.12353
0.2
0.25882
0.27451
0.21961
0.17451
0.17843
0.17843
0.18431
0.18824
0.19412
0.19412
0.2
0.18824
0.19412
0.2
0.18824
0.2
0.2
0.20392
0.19412
0.20392
0.20392
0.20392
0.20392
0.2098
0.21373
0.22353
0.21961
0.22941
0.22353
0.23922
0.23922
0.2451
0.23922
0.24902
0.24902
0.26471
0.24902
0.2549
0.25882
0.2549
0.24902
0.24902
0.2549
0.2451
0.24902
0.2451
0.23333
0.22941
0.22941
0.21961
0.21373
0.20392
0.2098
0.20392
0.20392
0.18824
0.18431
0.17843
0.18431
0.18431
0.18431
0.17843
0.17843
0.17843
0.18431
0.17843
0.17843
0.18824
0.18824
0.18431
0.17843
0.18824
0.18431
0.19412
0.19412
0.2
0.2
0.20392
0.2
0.20392
0.2
0.20392
0.19412
0.20392
0.2
0.20392
0.20392
0.20392
0.2098
0.21961
0.22353
0.21373
0.21373
0.22353
0.23333
0.24902
0.25882
0.24902
0.23922
0.22941
0.22353
0.2098
0.20392
0.12941
0.10392
0.17451
0.17843
0.16471
0.12353
0.058824
0.029412
0.013725
0.043137
0.078431
0.11961
0.078431
0.062745
0.14902
0.22941
0.27451
0.26863
0.2098
0.16863
0.17843
0.17451
0.17843
0.17451
0.17843
0.17843
0.18431
0.17843
0.17843
0.18431
0.17843
0.17843
0.18431
0.18431
0.18824
0.18431
0.19412
0.2
0.19412
0.20392
0.2
0.2098
0.20392
0.21373
0.21373
0.22353
0.22353
0.22941
0.22941
0.23333
0.22941
0.2451
0.23922
0.24902
0.2451
0.24902
0.23922
0.2451
0.23333
0.23922
0.23333
0.23333
0.22941
0.22941
0.23333
0.21961
0.22353
0.21373
0.21373
0.20392
0.20392
0.20392
0.20392
0.18824
0.2
0.19412
0.19412
0.18824
0.2
0.18431
0.18824
0.19412
0.2
0.2
0.20392
0.20392
0.20392
0.20392
0.20392
0.2098
0.20392
0.20392
0.20392
0.20392
0.20392
0.2098
0.20392
0.2098
0.20392
0.2098
0.2098
0.22353
0.21961
0.22941
0.23333
0.23922
0.22941
0.22941
0.22941
0.2451
0.2549
0.27451
0.27843
0.2549
0.24902
0.23922
0.22941
0.21961
0.22353
0.11961
0.16863
0.18824
0.19412
0.16471
0.11373
0.068627
0.04902
0.043137
0.088235
0.11961
0.12941
0.084314
0.13922
0.20392
0.27451
0.29412
0.2549
0.18824
0.17451
0.18431
0.17843
0.18431
0.17843
0.2
0.19412
0.2
0.2
0.20392
0.20392
0.2098
0.20392
0.2098
0.2098
0.21373
0.2098
0.21961
0.21373
0.21961
0.21961
0.22353
0.21961
0.22941
0.22941
0.23922
0.2451
0.23922
0.24902
0.24902
0.2549
0.2549
0.26471
0.25882
0.26471
0.25882
0.26471
0.24902
0.2549
0.24902
0.2549
0.24902
0.2451
0.23922
0.2451
0.22941
0.23333
0.22941
0.22353
0.21961
0.21373
0.21373
0.2098
0.20392
0.2
0.20392
0.2
0.20392
0.19412
0.20392
0.2
0.20392
0.20392
0.20392
0.20392
0.21373
0.2098
0.21373
0.21961
0.21373
0.21961
0.21961
0.22353
0.21961
0.22941
0.21961
0.22941
0.22353
0.22353
0.22353
0.22941
0.22353
0.22941
0.22941
0.23922
0.2451
0.24902
0.23333
0.2451
0.2451
0.26471
0.27451
0.2902
0.27451
0.27451
0.25882
0.2549
0.23922
0.23333
0.15882
0.13333
0.20392
0.2098
0.20392
0.16863
0.11373
0.07451
0.062745
0.07451
0.1098
0.13922
0.11373
0.098039
0.17451
0.23922
0.3
0.3098
0.2451
0.18824
0.2
0.20392
0.20392
0.20392
0.2098
0.2098
0.21373
0.2098
0.21373
0.21961
0.2098
0.21961
0.21373
0.22353
0.21961
0.22941
0.22941
0.23333
0.22941
0.23333
0.23333
0.2451
0.24902
0.24902
0.2549
0.25882
0.26471
0.27451
0.27451
0.27843
0.28431
0.28431
0.27843
0.28431
0.27843
0.27843
0.28431
0.27451
0.27843
0.27451
0.27451
0.26863
0.27451
0.25882
0.25882
0.2549
0.24902
0.2451
0.24902
0.22941
0.23333
0.22941
0.22353
0.21961
0.21961
0.22353
0.21373
0.21961
0.2098
0.21961
0.21373
0.22353
0.21961
0.22353
0.21961
0.22941
0.22941
0.22941
0.22353
0.22941
0.22941
0.22941
0.22941
0.22941
0.22941
0.22941
0.21961
0.22353
0.21961
0.22353
0.22941
0.22941
0.22941
0.22941
0.23922
0.23333
0.2451
0.23333
0.23922
0.2451
0.25882
0.26863
0.27451
0.25882
0.2549
0.2451
0.23333
0.21961
0.20392
0.11373
0.1549
0.18824
0.19412
0.17451
0.12353
0.052941
0.023529
0.013725
0.043137
0.078431
0.10392
0.062745
0.052941
0.13922
0.22353
0.27451
0.2902
0.22353
0.18431
0.20392
0.2
0.20392
0.2
0.20392
0.20392
0.20392
0.20392
0.20392
0.2
0.20392
0.2
0.20392
0.20392
0.20392
0.2098
0.20392
0.2098
0.2098
0.21961
0.21961
0.22941
0.22941
0.2451
0.23333
0.2451
0.2451
0.2549
0.2549
0.25882
0.2549
0.26471
0.25882
0.26471
0.25882
0.26471
0.25882
0.25882
0.2549
0.24902
0.25882
0.24902
0.24902
0.23922
0.22941
0.22941
0.22941
0.21961
0.21961
0.2098
0.2098
0.20392
0.20392
0.2
0.2
0.18824
0.18824
0.18824
0.18824
0.19412
0.18824
0.19412
0.2
0.20392
0.20392
0.20392
0.20392
0.20392
0.20392
0.2098
0.20392
0.2098
0.2098
0.21373
0.2098
0.21373
0.2098
0.21961
0.21373
0.21373
0.21373
0.22353
0.21961
0.22941
0.23922
0.2451
0.22941
0.23333
0.24902
0.25882
0.27451
0.27451
0.26863
0.24902
0.24902
0.23333
0.22941
0.21373
0.13922
0.13333
0.2
0.19412
0.18431
0.12941
0.078431
0.043137
0.039216
0.068627
0.10392
0.12353
0.078431
0.098039
0.16863
0.24902
0.27843
0.2902
0.20392
0.17843
0.18431
0.18824
0.17843
0.18824
0.19412
0.20392
0.20392
0.20392
0.20392
0.2098
0.20392
0.20392
0.20392
0.2098
0.20392
0.2098
0.21373
0.2098
0.22353
0.21961
0.22941
0.22941
0.23333
0.23922
0.2451
0.23922
0.24902
0.24902
0.2549
0.25882
0.26471
0.25882
0.26471
0.25882
0.26863
0.2549
0.25882
0.24902
0.24902
0.2451
0.2451
0.23922
0.23922
0.23333
0.23922
0.22941
0.22941
0.22353
0.21373
0.21961
0.2098
0.20392
0.20392
0.20392
0.2
0.19412
0.18824
0.19412
0.18824
0.2
0.19412
0.2
0.2
0.20392
0.2
0.20392
0.20392
0.20392
0.2098
0.20392
0.2098
0.20392
0.21373
0.2098
0.21373
0.2098
0.21373
0.2098
0.21961
0.21373
0.21961
0.21373
0.22941
0.22353
0.23333
0.22941
0.22941
0.22353
0.23922
0.24902
0.26863
0.27451
0.26863
0.2549
0.24902
0.23333
0.22941
0.21373
0.14314
0.12353
0.18824
0.2
0.18824
0.1549
0.094118
0.058824
0.039216
0.058824
0.088235
0.13333
0.088235
0.078431
0.13922
0.21961
0.26863
0.27843
0.21373
0.16863
0.17451
0.17843
0.17843
0.17843
0.17843
0.18431
0.18431
0.18824
0.19412
0.18824
0.2
0.19412
0.2
0.19412
0.2
0.19412
0.20392
0.2
0.20392
0.20392
0.2098
0.2098
0.21961
0.22353
0.22941
0.23333
0.2451
0.24902
0.2451
0.24902
0.24902
0.2549
0.24902
0.2549
0.24902
0.25882
0.24902
0.2549
0.24902
0.24902
0.2451
0.24902
0.23333
0.23922
0.22941
0.22941
0.22353
0.22941
0.21961
0.21373
0.2098
0.21373
0.20392
0.20392
0.2
0.2
0.20392
0.19412
0.2
0.19412
0.20392
0.2
0.20392
0.20392
0.20392
0.20392
0.20392
0.20392
0.2098
0.2098
0.21373
0.2098
0.21373
0.20392
0.2098
0.21373
0.20392
0.21373
0.2098
0.21373
0.2098
0.21961
0.21373
0.22353
0.22941
0.2451
0.23922
0.23333
0.23333
0.2549
0.26471
0.27843
0.26863
0.26471
0.24902
0.24902
0.22941
0.22353
0.16863
0.11961
0.17843
0.19412
0.17843
0.14314
0.078431
0.039216
0.023529
0.033333
0.07451
0.10392
0.07451
0.04902
0.10392
0.17843
0.24902
0.27843
0.23922
0.18431
0.17843
0.18431
0.18824
0.18431
0.19412
0.19412
0.20392
0.2
0.20392
0.20392
0.2
0.2
0.2
0.20392
0.20392
0.2098
0.20392
0.21373
0.21373
0.21961
0.21373
0.22941
0.22941
0.23333
0.23333
0.24902
0.24902
0.2549
0.25882
0.2549
0.25882
0.26863
0.27451
0.26863
0.26471
0.26471
0.25882
0.2549
0.26471
0.2549
0.24902
0.2451
0.23922
0.23333
0.23333
0.22941
0.22941
0.21961
0.21373
0.2098
0.2098
0.20392
0.20392
0.19412
0.2
0.18824
0.18824
0.18824
0.18824
0.18824
0.18431
0.19412
0.2
0.20392
0.2
0.20392
0.20392
0.20392
0.20392
0.20392
0.20392
0.2098
0.20392
0.21373
0.20392
0.21373
0.2098
0.21373
0.2098
0.21961
0.2098
0.21961
0.22353
0.22353
0.22941
0.23333
0.23922
0.22941
0.23922
0.2451
0.2549
0.26471
0.26863
0.24902
0.24902
0.22941
0.22353
0.2098
0.19412
0.11961
0.16863
0.18431
0.18824
0.14902
0.094118
0.039216
0.023529
0.029412
0.07451
0.10392
0.1098
0.062745
0.1098
0.18431
0.2549
0.28431
0.2549
0.2
0.18431
0.2
0.19412
0.2
0.19412
0.20392
0.2
0.20392
0.2
0.20392
0.2
0.20392
0.20392
0.20392
0.20392
0.20392
0.2098
0.2098
0.2098
0.2098
0.21961
0.22353
0.22941
0.22941
0.23922
0.2451
0.24902
0.24902
0.25882
0.2549
0.25882
0.2549
0.26471
0.25882
0.26471
0.25882
0.26471
0.26471
0.25882
0.25882
0.26471
0.2549
0.24902
0.2451
0.2451
0.23922
0.23922
0.23333
0.22941
0.22353
0.21373
0.2098
0.2098
0.20392
0.20392
0.2
0.19412
0.2
0.19412
0.20392
0.2
0.20392
0.2
0.20392
0.2
0.20392
0.20392
0.2098
0.21373
0.21961
0.21961
0.21373
0.22353
0.21961
0.22353
0.21373
0.21961
0.21373
0.22353
0.22353
0.22941
0.22941
0.22941
0.22941
0.2451
0.24902
0.2451
0.23922
0.24902
0.24902
0.26863
0.27843
0.27451
0.25882
0.2549
0.2451
0.22941
0.22941
0.17843
0.13333
0.19412
0.20392
0.19412
0.15882
0.094118
0.058824
0.039216
0.058824
0.084314
0.12941
0.088235
0.078431
0.13922
0.21961
0.27451
0.2902
0.22941
0.17843
0.17451
0.18431
0.18824
0.19412
0.2
0.18824
0.2
0.19412
0.20392
0.2
0.20392
0.20392
0.20392
0.20392
0.20392
0.20392
0.20392
0.20392
0.21373
0.21373
0.22353
0.22353
0.22941
0.23333
0.23922
0.2451
0.23922
0.24902
0.2549
0.25882
0.2549
0.26471
0.26471
0.26863
0.25882
0.26471
0.25882
0.26863
0.25882
0.2549
0.24902
0.2549
0.2451
0.2451
0.23333
0.23333
0.22941
0.22941
0.22941
0.22941
0.21373
0.2098
0.20392
0.20392
0.2098
0.2
0.20392
0.19412
0.20392
0.19412
0.20392
0.2
0.20392
0.2
0.20392
0.2
0.20392
0.20392
0.2098
0.20392
0.2098
0.20392
0.2098
0.21373
0.2098
0.21373
0.21961
0.21373
0.21373
0.21961
0.21373
0.22353
0.21961
0.22941
0.23333
0.23333
0.22941
0.22941
0.23333
0.24902
0.25882
0.27451
0.25882
0.24902
0.23922
0.23333
0.2098
0.12941
0.16471
0.2
0.20392
0.17451
0.12353
0.068627
0.043137
0.033333
0.07451
0.1098
0.12941
0.084314
0.11373
0.17451
0.2549
0.27451
0.2549
0.18431
0.17451
0.16863
0.17843
0.17843
0.17843
0.17843
0.18824
0.18824
0.19412
0.2
0.19412
0.2
0.20392
0.20392
0.2
0.20392
0.2
0.20392
0.2
0.20392
0.20392
0.21373
0.21373
0.22353
0.22353
0.23333
0.23333
0.23922
0.23922
0.24902
0.24902
0.2549
0.2549
0.25882
0.2549
0.24902
0.25882
0.24902
0.24902
0.2451
0.24902
0.23333
0.23922
0.22941
0.22941
0.22353
0.22353
0.21373
0.21373
0.20392
0.20392
0.2
0.20392
0.19412
0.19412
0.18431
0.18824
0.18431
0.17843
0.18824
0.18824
0.19412
0.18824
0.2
0.2
0.20392
0.20392
0.20392
0.20392
0.2098
0.20392
0.21373
0.20392
0.2098
0.20392
0.21373
0.2098
0.21961
0.21373
0.2098
0.21373
0.2098
0.2098
0.21961
0.21373
0.22353
0.22941
0.22941
0.22353
0.21961
0.22941
0.23922
0.25882
0.26471
0.2549
0.24902
0.23922
0.22941
0.22353
0.20392
0.13922
0.11373
0.18431
0.17843
0.17843
0.12353
0.052941
0.013725
0.0039216
0.029412
0.058824
0.088235
0.04902
0.039216
0.1098
0.19412
0.2549
0.27843
0.22353
0.18824
0.18824
0.2
0.18824
0.2
0.19412
0.2
0.2
0.20392
0.20392
0.20392
0.20392
0.2098
0.20392
0.20392
0.2098
0.2098
0.21373
0.21373
0.22353
0.22353
0.22941
0.22941
0.23333
0.23333
0.24902
0.24902
0.24902
0.24902
0.25882
0.25882
0.26863
0.26863
0.27451
0.27451
0.27451
0.26863
0.26863
0.26471
0.26471
0.2549
0.2549
0.24902
0.24902
0.23922
0.23333
0.23922
0.22941
0.22941
0.21373
0.21961
0.20392
0.2098
0.20392
0.20392
0.19412
0.19412
0.18431
0.18431
0.18431
0.18824
0.18824
0.2
0.19412
0.20392
0.20392
0.20392
0.21373
0.2098
0.21961
0.21373
0.21961
0.21961
0.21961
0.21961
0.22353
0.21961
0.21961
0.21961
0.22353
0.21961
0.22941
0.22353
0.22941
0.22941
0.23922
0.22941
0.22941
0.23333
0.23922
0.24902
0.26863
0.27451
0.2549
0.2451
0.23333
0.22941
0.21961
0.20392
0.11961
0.17843
0.19412
0.2
0.16471
0.10392
0.052941
0.033333
0.029412
0.07451
0.10392
0.11373
0.062745
0.11373
0.18824
0.2549
0.27451
0.2451
0.18824
0.17843
0.17843
0.17843
0.17843
0.17843
0.19412
0.18824
0.19412
0.19412
0.2
0.19412
0.2
0.19412
0.2
0.19412
0.2
0.2
0.2
0.20392
0.2
0.20392
0.20392
0.2098
0.21961
0.22353
0.22353
0.22941
0.23333
0.2451
0.23922
0.2451
0.24902
0.24902
0.24902
0.2549
0.24902
0.24902
0.2451
0.24902
0.2451
0.2451
0.23333
0.23333
0.22941
0.22941
0.22941
0.22353
0.21961
0.21373
0.2098
0.2098
0.2098
0.20392
0.20392
0.2
0.2
0.19412
0.2
0.18824
0.18824
0.18431
0.19412
0.19412
0.2
0.19412
0.2
0.19412
0.2
0.2
0.20392
0.2
0.20392
0.20392
0.20392
0.20392
0.20392
0.20392
0.20392
0.2098
0.20392
0.2098
0.2098
0.21961
0.22353
0.23333
0.23333
0.22941
0.22941
0.23922
0.2451
0.26471
0.27451
0.26863
0.24902
0.24902
0.23333
0.22941
0.21961
0.14314
0.12353
0.18824
0.2
0.18431
0.14314
0.088235
0.058824
0.039216
0.058824
0.088235
0.12941
0.088235
0.078431
0.14314
0.22941
0.27451
0.28431
0.21961
0.17843
0.17843
0.18824
0.18431
0.18824
0.18824
0.19412
0.18824
0.19412
0.2
0.19412
0.2
0.20392
0.20392
0.2
0.20392
0.20392
0.2098
0.2098
0.2098
0.21373
0.21961
0.21373
0.22353
0.22353
0.22941
0.23333
0.2451
0.2451
0.24902
0.24902
0.24902
0.2549
0.2549
0.24902
0.24902
0.2549
0.24902
0.24902
0.2451
0.24902
0.2451
0.2451
0.23922
0.23333
0.22941
0.22941
0.21961
0.22353
0.2098
0.2098
0.20392
0.20392
0.2
0.20392
0.2
0.2
0.18824
0.18431
0.19412
0.18824
0.19412
0.19412
0.2
0.19412
0.20392
0.2
0.20392
0.20392
0.2098
0.20392
0.2098
0.20392
0.2098
0.2098
0.21373
0.2098
0.21373
0.2098
0.21373
0.21373
0.2098
0.21961
0.21373
0.22941
0.22941
0.23333
0.22353
0.22941
0.23922
0.2549
0.26471
0.27451
0.2549
0.24902
0.23922
0.22941
0.17843
0.12353
0.18431
0.20392
0.18824
0.15882
0.088235
0.04902
0.029412
0.023529
0.07451
0.1098
0.084314
0.052941
0.1098
0.18431
0.2549
0.27843
0.23922
0.18431
0.17843
0.18431
0.18824
0.18431
0.2
0.19412
0.20392
0.2
0.20392
0.20392
0.20392
0.20392
0.20392
0.2098
0.20392
0.21373
0.2098
0.21961
0.2098
0.21961
0.21373
0.22353
0.22941
0.23922
0.23333
0.24902
0.24902
0.2549
0.2549
0.25882
0.2549
0.26471
0.25882
0.26471
0.25882
0.26471
0.25882
0.25882
0.2549
0.2549
0.24902
0.24902
0.23922
0.23922
0.23333
0.22941
0.22941
0.21961
0.22353
0.2098
0.2098
0.2
0.19412
0.18824
0.19412
0.18431
0.18824
0.17843
0.17843
0.18431
0.19412
0.18824
0.2
0.19412
0.2
0.19412
0.2
0.20392
0.2
0.20392
0.2
0.20392
0.2
0.20392
0.20392
0.20392
0.20392
0.20392
0.20392
0.20392
0.20392
0.20392
0.20392
0.21373
0.21373
0.22941
0.22941
0.22941
0.21961
0.22941
0.23922
0.2549
0.26471
0.26471
0.24902
0.23922
0.22941
0.21961
0.14902
0.12353
0.19412
0.2
0.18824
0.12941
0.062745
0.023529
0.013725
0.033333
0.078431
0.10392
0.07451
0.058824
0.13333
0.21373
0.26863
0.28431
0.21373
0.17843
0.18431
0.19412
0.18431
0.19412
0.18431
0.19412
0.19412
0.2
0.2
0.20392
0.2
0.20392
0.2
0.20392
0.20392
0.2098
0.20392
0.2098
0.2098
0.21373
0.21961
0.22353
0.22941
0.22941
0.23333
0.23922
0.2451
0.23922
0.24902
0.24902
0.2549
0.2549
0.25882
0.2549
0.2549
0.24902
0.2549
0.24902
0.24902
0.24902
0.24902
0.23922
0.2451
0.23333
0.23333
0.22353
0.22353
0.21961
0.21961
0.2098
0.20392
0.2098
0.20392
0.20392
0.19412
0.2
0.18824
0.19412
0.18431
0.19412
0.18431
0.18824
0.18824
0.2
0.2
0.2
0.20392
0.20392
0.2
0.20392
0.20392
0.20392
0.20392
0.20392
0.2098
0.20392
0.2098
0.2098
0.21373
0.2098
0.21373
0.2098
0.21373
0.21373
0.22941
0.22353
