0.42941
0.5
0.48431
0.4549
0.44902
0.43529
0.3902
0.48039
0.50588
0.4451
0.39412
0.31961
0.3098
0.39412
0.4902
0.5
0.44902
0.48431
0.5
0.44902
0.5
0.49412
0.51961
0.48431
0.47059
0.50588
0.48039
0.5
0.47451
0.4451
0.48431
0.51569
0.52549
0.47059
0.4549
0.4451
0.46471
0.41569
0.3902
0.32941
0.26471
0.088235
0.18824
0.42941
0.61961
0.63529
0.4451
0.32353
0.18824
0.1549
0.098039
0.043137
0.033333
0.2098
0.48039
0.60588
0.56078
0.6
0.6549
0.63529
0.66471
0.65098
0.62941
0.64118
0.6549
0.6451
0.64118
0.62941
0.68039
0.68627
0.72549
0.75098
0.8
0.78627
0.7902
0.78627
0.79608
0.73529
0.71569
0.7
0.61961
0.6549
0.5902
0.5451
0.49412
0.51569
0.48039
0.43922
0.38431
0.4
0.40392
0.41569
0.4
0.38039
0.38431
0.37059
0.38039
0.40392
0.43922
0.49412
0.47059
0.43922
0.43529
0.44902
0.4098
0.4451
0.47059
0.47451
0.44902
0.4
0.3902
0.36471
0.3549
0.4098
0.43922
0.47451
0.44902
0.49412
0.5098
0.43529
0.49412
0.51961
0.4902
0.48039
0.5098
0.4451
0.46078
0.47451
0.51569
0.51961
0.4902
0.47059
0.49412
0.43922
0.44902
0.46078
0.47059
0.4098
0.32353
0.34902
0.35882
0.26471
0.1549
0.2
0.38431
0.53529
0.53922
0.29412
0.17843
0.068627
0.0078431
0.0039216
-0.021569
0.11961
0.33529
0.5902
0.64118
0.64118
0.64118
0.64118
0.62941
0.61569
0.57059
0.62549
0.66078
0.66078
0.7098
0.72157
0.7
0.73529
0.70588
0.73137
0.80588
0.82549
0.82549
0.82549
0.83137
0.72157
0.78627
0.81569
0.76667
0.72157
0.66471
0.59608
0.52941
0.48039
0.4549
0.42549
0.38431
0.37059
0.3902
0.42549
0.4098
0.42941
0.41569
0.37059
0.3549
0.43922
0.43529
0.4549
0.41569
0.3549
0.46078
0.4451
0.4451
0.47451
0.43922
0.41569
0.41961
0.43922
0.4098
0.3549
0.33529
0.37451
0.37059
0.47451
0.44902
0.44902
0.43529
0.4902
0.47451
0.44902
0.48431
0.5098
0.48039
0.43922
0.50588
0.51961
0.44902
0.47451
0.4549
0.48431
0.4549
0.47059
0.48431
0.46471
0.41961
0.37451
0.36471
0.38039
0.37059
0.26863
0.16471
0.12941
0.3902
0.60588
0.63529
0.42549
0.24902
0.16863
0.18824
0.088235
0.0039216
0.058824
0.22353
0.3902
0.52941
0.5549
0.6098
0.63529
0.61961
0.61961
0.65098
0.67059
0.64118
0.63529
0.61569
0.67059
0.68039
0.66078
0.72157
0.68627
0.76078
0.82549
0.83529
0.83137
0.77059
0.75098
0.81176
0.7902
0.71569
0.7098
0.63529
0.61569
0.56078
0.52549
0.46471
0.42549
0.4098
0.43529
0.4098
0.38039
0.37059
0.35882
0.38431
0.37451
0.3451
0.41961
0.43922
0.41961
0.4
0.41569
0.43922
0.41569
0.40392
0.42549
0.39412
0.35882
0.42549
0.38039
0.42549
0.42941
0.38039
0.39412
0.42549
0.48039
0.4902
0.44902
0.47059
0.4098
0.46078
0.52549
0.56471
0.5451
0.51569
0.5
0.47451
0.44902
0.46078
0.42549
0.47059
0.4902
0.40392
0.5098
0.53529
0.4902
0.47059
0.42549
0.3549
0.38039
0.3902
0.29412
0.16471
0.10392
0.22353
0.41961
0.55098
0.47059
0.32941
0.1549
0.11961
0.094118
0.039216
-0.0019608
0.16863
0.43922
0.58431
0.5902
0.61569
0.66078
0.62941
0.64118
0.63529
0.59608
0.58039
0.66471
0.67059
0.64118
0.68039
0.72549
0.71569
0.73137
0.75098
0.78039
0.78627
0.74118
0.81176
0.84118
0.80588
0.77059
0.75098
0.76667
0.66078
0.58431
0.57059
0.5098
0.4549
0.43529
0.41569
0.42941
0.4
0.4098
0.38039
0.40392
0.39412
0.41569
0.38431
0.34902
0.41569
0.44902
0.38039
0.4451
0.41961
0.4549
0.44902
0.46078
0.43529
0.4549
0.46471
0.40392
0.4098
0.41961
0.3549
0.36471
0.38431
0.42549
0.46078
0.47451
0.48039
0.46471
0.43922
0.42549
0.43922
0.47451
0.4549
0.5098
0.53922
0.48039
0.47451
0.46471
0.47451
0.46471
0.47059
0.43529
0.43922
0.48431
0.47451
0.4549
0.42941
0.4098
0.39412
0.41961
0.32353
0.22353
0.18824
0.15882
0.29412
0.48431
0.5098
0.35882
0.21373
0.18824
0.14902
0.023529
-0.015686
0.13333
0.3451
0.50588
0.58431
0.57451
0.58431
0.62941
0.60588
0.5549
0.5451
0.68627
0.7098
0.69608
0.65098
0.64118
0.66471
0.7
0.6902
0.72157
0.67647
0.79608
0.85098
0.85098
0.8451
0.8
0.78627
0.7902
0.69608
0.63529
0.6
0.5549
0.5
0.52549
0.47059
0.48039
0.44902
0.41961
0.4
0.37059
0.35882
0.40392
0.38431
0.42941
0.3902
0.38039
0.42941
0.4098
0.4
0.38039
0.42549
0.41569
0.4451
0.43922
0.48431
0.4549
0.42941
0.41569
0.42941
0.40392
0.35882
0.32353
0.3549
0.32353
0.48431
0.51569
0.47059
0.47451
0.44902
0.4549
0.43529
0.46471
0.47451
0.4902
0.47451
0.46471
0.44902
0.47451
0.48039
0.46078
0.47451
0.4549
0.43922
0.48431
0.46471
0.3902
0.48039
0.43529
0.41569
0.32941
0.3451
0.25882
0.17451
0.11961
0.26471
0.50588
0.5451
0.35882
0.23333
0.12353
0.052941
0.058824
0.017647
0.098039
0.3098
0.41569
0.5902
0.6549
0.64118
0.6451
0.62941
0.57451
0.57059
0.62549
0.66078
0.6902
0.67647
0.66078
0.7098
0.72549
0.6451
0.76078
0.8
0.78039
0.81176
0.8451
0.87059
0.8451
0.80588
0.74118
0.70588
0.7098
0.64118
0.58431
0.57059
0.48039
0.51961
0.48431
0.42941
0.4098
0.43529
0.38039
0.3549
0.37451
0.42549
0.39412
0.41569
0.39412
0.41961
0.43529
0.4098
0.41961
0.44902
0.4549
0.42549
0.41569
0.43529
0.42941
0.47059
0.42549
0.37451
0.37059
0.41961
0.43529
0.37059
0.38431
0.38039
0.3902
0.41569
0.47059
0.48431
0.5098
0.50588
0.48039
0.46078
0.4902
0.49412
0.46471
0.47451
0.5098
0.51961
0.46078
0.4549
0.5
0.48431
0.47059
0.46471
0.4098
0.40392
0.44902
0.4
0.40392
0.38039
0.32941
0.22353
0.16863
0.21961
0.43922
0.62549
0.52549
0.3549
0.24902
0.1549
0.11373
0.098039
0.04902
0.098039
0.2902
0.5
0.5902
0.5902
0.6098
0.57451
0.56471
0.64118
0.63529
0.67647
0.68627
0.66078
0.65098
0.6549
0.65098
0.70588
0.70588
0.67059
0.7902
0.81569
0.8
0.84118
0.8451
0.8
0.80588
0.77647
0.69608
0.66078
0.61961
0.5451
0.52549
0.43922
0.46471
0.48431
0.4098
0.40392
0.41961
0.4098
0.3902
0.38431
0.32941
0.3549
0.40392
0.4098
0.41961
0.4
0.43529
0.42549
0.42549
0.4
0.42549
0.41569
0.37451
0.40392
0.47059
0.47451
0.40392
0.3902
0.35882
0.3451
0.41961
0.47059
0.4902
0.46471
0.44902
0.47059
0.43922
0.47451
0.53529
0.5549
0.49412
0.48039
0.4902
0.47451
0.47451
0.4549
0.46471
0.48431
0.4902
0.47451
0.46078
0.48431
0.44902
0.4549
0.42941
0.38039
0.39412
0.38431
0.2549
0.21373
0.15882
0.23922
0.4549
0.5098
0.4098
0.31961
0.18824
0.088235
0.084314
0.04902
0.033333
0.18431
0.42941
0.56078
0.61569
0.61961
0.61569
0.5902
0.5451
0.6
0.7
0.70588
0.68039
0.66078
0.70588
0.7
0.6549
0.70588
0.74118
0.77059
0.79608
0.77647
0.7549
0.80588
0.83529
0.85686
0.83137
0.7902
0.72549
0.66471
0.57059
0.49412
0.51961
0.5451
0.48039
0.4549
0.40392
0.37451
0.41961
0.37059
0.42549
0.40392
0.41961
0.42941
0.39412
0.32353
0.4098
0.47451
0.48039
0.44902
0.4549
0.42549
0.42941
0.39412
0.46471
0.4549
0.48431
0.4451
0.43922
0.41961
0.33922
0.33529
0.36471
0.33922
0.29412
0.28431
0.3098
0.2902
0.38039
0.61569
0.72549
0.6451
0.6098
0.5451
0.6
0.4902
0.30392
0.26863
0.39412
0.48039
0.5
0.52941
0.51961
0.56471
0.53529
0.51569
0.5
0.53922
0.56078
0.53529
0.5451
0.53922
0.5098
0.51961
0.50588
0.5902
0.6
0.56078
0.51961
0.56471
0.5451
0.51961
0.5
0.4902
0.43529
0.46471
0.47059
0.42941
0.44902
0.43922
0.39412
0.3549
0.4
0.42549
0.40392
0.41961
0.3902
0.41961
0.42549
0.37059
0.41961
0.47451
0.48039
0.44902
0.52549
0.4098
0.32353
0.3098
0.3902
0.49412
0.64118
0.73137
0.77647
0.64118
0.53529
0.3549
0.27451
0.18824
0.23922
0.31961
0.42549
0.4451
0.42941
0.47451
0.4549
0.52941
0.5549
0.57451
0.58039
0.53529
0.50588
0.47059
0.50588
0.55098
0.51961
0.50588
0.51961
0.5
0.50588
0.42549
0.4098
0.47059
0.51569
0.48039
0.42941
0.34902
0.24902
0.33529
0.42549
0.4902
0.49412
0.46078
0.42549
0.40392
0.38431
0.5
0.51961
0.5451
0.50588
0.48431
0.5451
0.53529
0.50588
0.4902
0.47451
0.41961
0.47059
0.52941
0.56471
0.52549
0.47451
0.46078
0.5
0.52941
0.5
0.48431
0.47451
0.44902
0.46078
0.4451
0.4549
0.43529
0.4
0.42549
0.36471
0.22941
0.15882
0.13333
0.27451
0.43529
0.48431
0.3098
0.19412
0.068627
0.0039216
-0.037255
0.013725
0.20392
0.46471
0.58431
0.6098
0.61961
0.68627
0.69608
0.7
0.66078
0.73137
0.71569
0.70588
0.68627
0.7451
0.73137
0.8
0.79608
0.73529
0.80588
0.8451
0.85686
0.86078
0.83529
0.82157
0.78039
0.73137
0.68039
0.6902
0.6098
0.57059
0.52941
0.50588
0.5098
0.5
0.48039
0.47059
0.44902
0.4098
0.3902
0.44902
0.42941
0.42549
0.43922
0.47059
0.47451
0.4549
0.44902
0.43922
0.4098
0.38039
0.40392
0.47059
0.42941
0.3451
0.3
0.35882
0.42549
0.48039
0.4549
0.47451
0.46471
0.41569
0.46078
0.50588
0.51569
0.4549
0.44902
0.52549
0.51569
0.48039
0.47059
0.48431
0.42549
0.4549
0.47451
0.5098
0.4451
0.43529
0.51961
0.5
0.44902
0.39412
0.38039
0.3549
0.30392
0.27451
0.20392
0.14902
0.3451
0.57059
0.67059
0.50588
0.38431
0.22353
0.1098
0.07451
0.029412
0.068627
0.18824
0.41961
0.51569
0.57059
0.61961
0.6451
0.62549
0.60588
0.65098
0.6549
0.61569
0.6451
0.66471
0.68627
0.68627
0.71569
0.73137
0.76078
0.7549
0.78039
0.77059
0.8
0.78627
0.76667
0.73137
0.70588
0.68627
0.63529
0.66078
0.5451
0.5098
0.51961
0.42941
0.44902
0.4549
0.41961
0.38431
0.38039
0.38431
0.38039
0.37451
0.37059
0.4098
0.41569
0.33922
0.38039
0.42941
0.47451
0.48039
0.4549
0.43529
0.3902
0.40392
0.42549
0.3902
0.4549
0.42941
0.42549
0.42549
0.41569
0.40392
0.42549
0.47059
0.46078
0.51961
0.4902
0.47059
0.44902
0.42549
0.47059
0.5
0.53922
0.5098
0.46471
0.48039
0.44902
0.43922
0.44902
0.48039
0.41961
0.48039
0.49412
0.46471
0.42941
0.4549
0.42549
0.40392
0.38039
0.36471
0.26863
0.13333
0.07451
0.31961
0.52941
0.5451
0.3451
0.27451
0.13333
0.078431
0.039216
0.029412
0.13333
0.33529
0.47451
0.5
0.59608
0.58431
0.66078
0.67059
0.62941
0.61569
0.62941
0.62549
0.6451
0.66078
0.64118
0.64118
0.68627
0.73529
0.76078
0.77647
0.7549
0.8
0.79608
0.78627
0.75098
0.73137
0.7098
0.71569
0.61569
0.59608
0.56078
0.49412
0.43922
0.42549
0.4451
0.37059
0.4098
0.41569
0.38039
0.3451
0.4098
0.41569
0.40392
0.4098
0.41569
0.3902
0.4098
0.39412
0.41569
0.44902
0.4549
0.4451
0.42941
0.4451
0.47059
0.43922
0.4549
0.43529
0.41961
0.32941
0.31961
0.38039
0.40392
0.43922
0.4549
0.43922
0.46078
0.47451
0.46078
0.47059
0.46471
0.5
0.4902
0.47451
0.46078
0.4549
0.48039
0.47059
0.43922
0.4549
0.44902
0.43922
0.4549
0.44902
0.42941
0.44902
0.42549
0.40392
0.38431
0.34902
0.28431
0.17843
0.12941
0.23922
0.43922
0.51961
0.4098
0.3
0.16863
0.07451
0.078431
0.043137
0.033333
0.26471
0.46471
0.6
0.62941
0.63529
0.64118
0.62549
0.63529
0.6451
0.62941
0.6451
0.6549
0.66471
0.67059
0.68627
0.69608
0.71569
0.74118
0.78039
0.8
0.81176
0.81569
0.82549
0.8
0.76078
0.73529
0.7
0.66471
0.61569
0.58039
0.53529
0.46471
0.40392
0.31961
0.21961
0.18824
0.22353
0.43529
0.75098
0.7902
0.68039
0.56471
0.46471
0.33529
0.15882
0.094118
0.11373
0.18824
0.30392
0.42549
0.47451
0.48039
0.4902
0.5
0.50588
0.4902
0.47059
0.46078
0.42549
0.38431
0.37059
0.38431
0.41569
0.46078
0.47451
0.4549
0.46471
0.42549
0.43922
0.4451
0.44902
0.43922
0.42549
0.4098
0.4098
0.40392
0.4098
0.40392
0.41569
0.42549
0.41961
0.43922
0.47451
0.47451
0.47451
0.47451
0.48431
0.4902
0.47451
0.4902
0.49412
0.47451
0.49412
0.4902
0.48431
0.48039
0.48039
0.48431
0.43922
0.46078
0.48431
0.4902
0.4902
0.48039
0.47451
0.46471
0.46078
0.48039
0.46471
0.4549
0.47451
0.47451
0.46471
0.47451
0.46471
0.47059
0.48039
0.47451
0.48431
0.4902
0.46078
0.47451
0.47451
0.48039
0.47451
0.47059
0.48039
0.4902
0.47451
0.4451
0.47059
0.48431
0.48039
0.5
0.50588
0.48431
0.47451
0.47059
0.46471
0.47451
0.48039
0.48431
0.46078
0.44902
0.47451
0.5
0.48431
0.47059
0.46078
0.47451
0.46078
0.4902
0.47451
0.46078
0.47451
0.47059
0.47451
0.48039
0.48431
0.47059
0.44902
0.43529
0.4
0.3902
0.38039
0.40392
0.43529
0.46078
0.46078
0.47451
0.47059
0.48431
0.5098
0.51961
0.48039
0.51961
0.53922
0.51961
0.5
0.48039
0.5098
0.51569
0.50588
0.48431
0.47451
0.47451
0.48431
0.4902
0.42549
0.41961
0.38431
0.37451
0.28431
0.21961
0.19412
0.32941
0.5902
0.6549
0.52941
0.33529
0.22941
0.16471
0.11961
0.084314
0.058824
0.20392
0.4
0.53529
0.61569
0.63529
0.62941
0.65098
0.6451
0.64118
0.6549
0.66078
0.6549
0.6451
0.67059
0.68627
0.7098
0.71569
0.7098
0.74118
0.73529
0.74118
0.7549
0.78039
0.77647
0.7549
0.73137
0.69608
0.66078
0.62549
0.57451
0.52941
0.5
0.4902
0.46078
0.42549
0.4
0.37451
0.39412
0.4098
0.42549
0.41569
0.40392
0.40392
0.39412
0.41569
0.4098
0.41961
0.42549
0.41961
0.42549
0.4098
0.44902
0.46078
0.44902
0.44902
0.43922
0.43529
0.43922
0.42941
0.4098
0.38039
0.38039
0.39412
0.43922
0.48431
0.49412
0.48431
0.48039
0.48431
0.48039
0.4902
0.48431
0.51569
0.5
0.5098
0.51961
0.4902
0.48431
0.48431
0.4902
0.48039
0.47451
0.47451
0.46078
0.46078
0.46078
0.44902
0.40392
0.3902
0.38039
0.3549
0.26471
0.17843
0.12941
0.26863
0.4451
0.47451
0.33529
0.2549
0.1549
0.10392
0.033333
0.023529
0.11961
0.3549
0.55098
0.5902
0.6098
0.61569
0.62549
0.63529
0.64118
0.61569
0.61961
0.63529
0.65098
0.6549
0.68039
0.67647
0.7
0.71569
0.7549
0.77059
0.78627
0.78627
0.81176
0.8
0.80588
0.78039
0.7451
0.7
0.6549
0.60588
0.51961
0.43922
0.33922
0.2549
0.22941
0.2451
0.5
0.81569
0.8451
0.76667
0.64118
0.49412
0.33529
0.2
0.13333
0.10392
0.15882
0.2902
0.4098
0.46078
0.46471
0.4549
0.47451
0.47059
0.4549
0.47451
0.44902
0.4451
0.42941
0.38431
0.34902
0.33922
0.35882
0.4
0.41961
0.40392
0.40392
0.3902
0.38039
0.36471
0.37059
0.38039
0.40392
0.4098
0.40392
0.4
0.4098
0.41961
0.42941
0.42549
0.41961
0.4549
0.47059
0.46471
0.47059
0.47451
0.4902
0.49412
0.47451
0.48039
0.48039
0.49412
0.47451
0.47451
0.5
0.5
0.48039
0.48039
0.48431
0.48039
0.47059
0.48039
0.47451
0.48039
0.48039
0.47059
0.48431
0.47059
0.47451
0.49412
0.48039
0.47059
0.47451
0.48039
0.48039
0.47451
0.47451
0.48039
0.4902
0.48039
0.48431
0.47451
0.47059
0.46471
0.47451
0.47059
0.47451
0.4902
0.48431
0.48039
0.47451
0.48039
0.47451
0.47059
0.47451
0.47451
0.47451
0.47059
0.46471
0.48039
0.47451
0.48039
0.47451
0.4902
0.48431
0.48431
0.48039
0.47451
0.47059
0.47451
0.47451
0.48039
0.4902
0.5
0.48431
0.47451
0.47451
0.46471
0.47451
0.48431
0.4451
0.4098
0.38431
0.37451
0.40392
0.42941
0.48039
0.4902
0.48431
0.4902
0.48039
0.48039
0.50588
0.5098
0.5
0.51569
0.51961
0.51961
0.50588
0.50588
0.49412
0.4902
0.48431
0.49412
0.48039
0.48431
0.48431
0.47059
0.42549
0.41569
0.39412
0.37451
0.27451
0.18431
0.16863
0.39412
0.58039
0.59608
0.42941
0.3
0.20392
0.14902
0.11961
0.098039
0.16863
0.33529
0.5
0.58039
0.62941
0.63529
0.64118
0.63529
0.64118
0.65098
0.6549
0.66078
0.66078
0.68627
0.69608
0.7
0.71569
0.73137
0.75098
0.77647
0.77059
0.78039
0.7902
0.78039
0.77647
0.78039
0.74118
0.6902
0.6451
0.62549
0.60588
0.53922
0.50588
0.48039
0.44902
0.43922
0.42941
0.4098
0.4
0.40392
0.39412
0.40392
0.41961
0.41569
0.43529
0.41961
0.42941
0.42549
0.42941
0.42549
0.43922
0.4451
0.43922
0.4451
0.46471
0.46078
0.46471
0.4451
0.44902
0.4451
0.41961
0.38039
0.3549
0.38039
0.40392
0.4451
0.46078
0.46471
0.46078
0.47451
0.47451
0.48039
0.47451
0.5098
0.5098
0.4902
0.47451
0.48431
0.4902
0.48039
0.47451
0.4549
0.48431
0.47451
0.46078
0.47451
0.48431
0.4451
0.4
0.37451
0.35882
0.32941
0.23333
0.15882
0.2
0.42941
0.6
0.6098
0.4098
0.2451
0.15882
0.10392
0.07451
0.052941
0.11373
0.29412
0.48039
0.56471
0.6
0.6098
0.61961
0.62941
0.62941
0.61961
0.62941
0.64118
0.64118
0.65098
0.67059
0.68039
0.7
0.71569
0.73529
0.7549
0.77647
0.78627
0.8
0.80588
0.78039
0.78039
0.74118
0.69608
0.66078
0.6098
0.5549
0.48431
0.40392
0.32941
0.23922
0.2098
0.21373
0.37059
0.73137
0.83529
0.77647
0.6549
0.49412
0.37451
0.2451
0.13922
0.11373
0.14902
0.25882
0.3902
0.44902
0.47451
0.48431
0.4902
0.47451
0.47059
0.46078
0.43529
0.4
0.39412
0.42549
0.4451
0.49412
0.50588
0.4902
0.48431
0.47451
0.47059
0.47451
0.47451
0.47059
0.46078
0.44902
0.42549
0.41961
0.39412
0.4
0.40392
0.3902
0.40392
0.41569
0.4098
0.4098
0.41961
0.41569
0.43529
0.4451
0.4549
0.44902
0.46078
0.47451
0.47451
0.46078
0.46471
0.47059
0.48039
0.48431
0.47451
0.48039
0.48039
0.4902
0.49412
0.49412
0.4902
0.48431
0.4902
0.48039
0.47451
0.49412
0.5
0.48039
0.47451
0.47451
0.4902
0.48039
0.46078
0.46471
0.47451
0.46471
0.48431
0.4902
0.47451
0.48039
0.47451
0.47451
0.48039
0.47059
0.46471
0.46471
0.46078
0.47451
0.47451
0.48431
0.48039
0.46471
0.46471
0.47451
0.48431
0.46471
0.46078
0.47451
0.46078
0.47451
0.47059
0.47059
0.46471
0.46078
0.47451
0.48039
0.48431
0.44902
0.46471
0.47451
0.47059
0.46471
0.47451
0.47451
0.44902
0.4451
0.42549
0.38431
0.37059
0.37059
0.36471
0.4451
0.48039
0.4902
0.48039
0.49412
0.47059
0.46078
0.51961
0.52549
0.51961
0.51961
0.5
0.48431
0.4902
0.49412
0.47451
0.51569
0.50588
0.48431
0.47059
0.46471
0.47059
0.43922
0.4451
0.40392
0.39412
0.30392
0.18431
0.14314
0.3549
0.57059
0.58039
0.43922
0.32353
0.2098
0.16863
0.1098
0.11373
0.094118
0.3098
0.48431
0.57059
0.5902
0.63529
0.64118
0.61961
0.6451
0.64118
0.62549
0.61961
0.6451
0.6549
0.6902
0.68039
0.6902
0.7098
0.72157
0.73137
0.7451
0.77059
0.77647
0.7902
0.77647
0.75098
0.72549
0.67647
0.63529
0.6
0.57059
0.52549
0.48431
0.48431
0.48039
0.43922
0.4
0.4098
0.40392
0.41569
0.39412
0.40392
0.38431
0.37059
0.42549
0.44902
0.46078
0.47059
0.4451
0.4549
0.42941
0.4
0.41961
0.47059
0.48431
0.4549
0.43922
0.4902
0.43922
0.3902
0.36471
0.38039
0.40392
0.46471
0.48039
0.46078
0.4902
0.48039
0.46078
0.48431
0.50588
0.5
0.49412
0.47451
0.47451
0.47451
0.48039
0.4902
0.47451
0.47059
0.46078
0.44902
0.46078
0.46471
0.47451
0.48039
0.40392
0.3902
0.36471
0.34902
0.24902
0.14902
0.11373
0.2902
0.46078
0.5
0.34902
0.23922
0.11961
0.058824
0.023529
0.013725
0.16471
0.37451
0.52549
0.59608
0.62549
0.61961
0.62941
0.62941
0.66078
0.64118
0.64118
0.64118
0.65098
0.66078
0.6902
0.69608
0.6902
0.7098
0.74118
0.76667
0.78627
0.8
0.8
0.80588
0.79608
0.76078
0.72549
0.68039
0.64118
0.6098
0.56471
0.52549
0.49412
0.4549
0.43529
0.42549
0.41569
0.4098
0.4
0.37451
0.34902
0.3098
0.22941
0.21373
0.27451
0.4
0.7
0.78627
0.65098
0.52941
0.43922
0.3451
0.18431
0.068627
0.13922
0.23333
0.31961
0.38431
0.4098
0.40392
0.4098
0.43529
0.49412
0.51961
0.51569
0.51569
0.51961
0.52549
0.52941
0.5451
0.5549
0.55098
0.5549
0.53922
0.53922
0.51961
0.50588
0.5
0.4902
0.47451
0.46471
0.46078
0.44902
0.42549
0.42549
0.42941
0.42549
0.41961
0.40392
0.41569
0.40392
0.41961
0.42549
0.43529
0.43529
0.43922
0.42941
0.44902
0.44902
0.4451
0.44902
0.44902
0.43529
0.44902
0.47451
0.46078
0.4549
0.44902
0.4549
0.46078
0.46078
0.4549
0.46078
0.4549
0.46471
0.46471
0.46471
0.47451
0.46078
0.4549
0.46078
0.47451
0.46078
0.4549
0.46471
0.47059
0.46471
0.4549
0.46471
0.46471
0.46471
0.47451
0.46078
0.47059
0.47059
0.47451
0.47059
0.47059
0.46078
0.46471
0.46078
0.46471
0.4549
0.48039
0.46078
0.47059
0.48039
0.4549
0.46471
0.47059
0.47451
0.46078
0.4549
0.46471
0.47451
0.46471
0.47451
0.4451
0.43529
0.43922
0.38431
0.33922
0.37059
0.4
0.43529
0.44902
0.44902
0.48039
0.49412
0.5
0.5
0.5098
0.52549
0.5098
0.51569
0.5
0.5
0.50588
0.49412
0.50588
0.5
0.50588
0.47451
0.48039
0.47451
0.48431
0.42941
0.40392
0.38039
0.3451
0.27451
0.22353
0.20392
0.41569
0.61961
0.66471
0.4902
0.33922
0.19412
0.12353
0.088235
0.058824
0.04902
0.22941
0.41569
0.56078
0.61961
0.62941
0.6451
0.64118
0.64118
0.6451
0.6549
0.66078
0.65098
0.66471
0.68039
0.69608
0.70588
0.72549
0.73137
0.72549
0.7549
0.76667
0.77059
0.76078
0.77059
0.7549
0.72549
0.69608
0.66471
0.63529
0.58039
0.55098
0.51961
0.47451
0.44902
0.4451
0.40392
0.4098
0.41961
0.40392
0.4
0.40392
0.4
0.40392
0.4098
0.41961
0.42549
0.42549
0.42549
0.41961
0.42549
0.44902
0.4549
0.44902
0.44902
0.43922
0.42549
0.41961
0.42941
0.38431
0.37059
0.4
0.41569
0.46471
0.5
0.48431
0.48039
0.48431
0.4902
0.4902
0.4902
0.5
0.5
0.48431
0.48039
0.47451
0.47059
0.47451
0.47059
0.47451
0.46471
0.48039
0.4549
0.46078
0.47451
0.46078
0.40392
0.38039
0.36471
0.34902
0.27451
0.2
0.16471
0.3098
0.53922
0.58431
0.43529
0.3
0.18824
0.12941
0.088235
0.058824
0.04902
0.26863
0.46471
0.57059
0.6098
0.61569
0.6098
0.61569
0.62941
0.63529
0.64118
0.63529
0.64118
0.65098
0.67059
0.67647
0.69608
0.7098
0.73137
0.7549
0.77647
0.8
0.81176
0.81569
0.8
0.78039
0.76078
0.73137
0.68627
0.64118
0.58039
0.53922
0.50588
0.46078
0.43922
0.41961
0.4098
0.4
0.3902
0.38431
0.4
0.40392
0.3902
0.3549
0.31373
0.2451
0.23922
0.2549
0.3549
0.66078
0.7902
0.68627
0.55098
0.46078
0.34902
0.21373
0.1098
0.12941
0.2098
0.26471
0.36471
0.43922
0.50588
0.5451
0.53529
0.5451
0.56078
0.53922
0.53529
0.56078
0.57451
0.58039
0.57451
0.58039
0.57059
0.53529
0.52549
0.57059
0.5451
0.5451
0.53529
0.51961
0.5
0.4902
0.48039
0.48431
0.44902
0.4451
0.42549
0.42549
0.43529
0.42941
0.41961
0.41961
0.42549
0.42549
0.43529
0.41961
0.43922
0.4549
0.43529
0.43922
0.46471
0.44902
0.4451
0.43922
0.4549
0.4549
0.46471
0.46471
0.47451
0.47059
0.44902
0.4451
0.4902
0.48431
0.48431
0.48039
0.47451
0.47451
0.46471
0.47451
0.46471
0.4451
0.47059
0.48431
0.47059
0.43922
0.48039
0.4902
0.48039
0.47059
0.44902
0.46471
0.44902
0.47451
0.47451
0.47451
0.44902
0.48039
0.47451
0.48039
0.43529
0.47451
0.4902
0.48039
0.4451
0.4549
0.47059
0.49412
0.5
0.46078
0.4549
0.47451
0.48431
0.4549
0.46078
0.4549
0.47451
0.44902
0.42549
0.3549
0.3451
0.38039
0.41569
0.43922
0.44902
0.4451
0.5
0.50588
0.48431
0.51569
0.51961
0.4902
0.51569
0.5098
0.50588
0.5098
0.4902
0.49412
0.44902
0.47451
0.5
0.5
0.47059
0.47451
0.4549
0.43529
0.4098
0.36471
0.36471
0.29412
0.2
0.18824
0.4451
0.63529
0.6451
0.47451
0.3098
0.17843
0.12353
0.11373
0.078431
0.04902
0.27843
0.47451
0.58431
0.59608
0.63529
0.65098
0.6451
0.63529
0.66078
0.6549
0.66471
0.6549
0.67647
0.67059
0.68627
0.67647
0.73137
0.73529
0.75098
0.78039
0.7902
0.78039
0.77647
0.76078
0.7549
0.73529
0.70588
0.67059
0.61961
0.58039
0.53529
0.5098
0.47059
0.46078
0.43529
0.4098
0.40392
0.42941
0.41569
0.40392
0.38431
0.4
0.4098
0.41961
0.42549
0.40392
0.4098
0.42549
0.41961
0.4451
0.43529
0.44902
0.44902
0.44902
0.43922
0.4451
0.42549
0.3902
0.37451
0.37059
0.3902
0.43922
0.48039
0.47451
0.47451
0.48039
0.47451
0.46471
0.48431
0.50588
0.48431
0.47059
0.49412
0.4902
0.48039
0.49412
0.48431
0.4902
0.47059
0.4549
0.4549
0.46471
0.47059
0.46078
0.42941
0.3902
0.38039
0.36471
0.32353
0.22941
0.14902
0.14314
0.36471
0.5549
0.57059
0.37059
0.2549
0.13922
0.11373
0.088235
0.07451
0.15882
0.34902
0.5098
0.58431
0.59608
0.6
0.60588
0.6098
0.61961
0.62941
0.61961
0.6451
0.66078
0.64118
0.65098
0.68039
0.68627
0.70588
0.72549
0.75098
0.77647
0.78627
0.8
0.81176
0.79608
0.77059
0.73529
0.70588
0.6549
0.60588
0.56471
0.5098
0.4902
0.46078
0.43922
0.4
0.38431
0.34902
0.32353
0.27451
0.22941
0.21373
0.2451
0.43922
0.7451
0.8
0.63529
0.5098
0.37451
0.24902
0.1098
0.058824
0.12941
0.23333
0.32353
0.4098
0.43922
0.44902
0.4451
0.43529
0.4451
0.47059
0.5098
0.5451
0.51961
0.5098
0.52941
0.52941
0.53922
0.53529
0.56471
0.57059
0.5451
0.53922
0.52941
0.50588
0.48431
0.47451
0.47451
0.46078
0.4451
0.43529
0.43529
0.42549
0.42549
0.4098
0.42549
0.41961
0.4098
0.41961
0.42941
0.42941
0.42549
0.44902
0.44902
0.4451
0.4549
0.46471
0.4549
0.44902
0.4451
0.46471
0.46078
0.46471
0.46078
0.4549
0.44902
0.47059
0.47451
0.47451
0.47059
0.46471
0.47451
0.47059
0.46078
0.4549
0.44902
0.4549
0.46471
0.4549
0.44902
0.48039
0.47451
0.46471
0.47059
0.46471
0.46078
0.4549
0.47451
0.47059
0.46078
0.47059
0.47059
0.47059
0.47451
0.47059
0.47451
0.47059
0.47451
0.46471
0.46078
0.47059
0.44902
0.47059
0.47451
0.46471
0.47059
0.48039
0.47059
0.47451
0.46471
0.47059
0.46078
0.4549
0.47451
0.47059
0.4451
0.44902
0.44902
0.42549
0.38431
0.38039
0.38039
0.41961
0.47059
0.48039
0.47059
0.47451
0.48431
0.4902
0.5
0.51569
0.51961
0.5098
0.5
0.5
0.4902
0.5
0.48039
0.5
0.5
0.48431
0.48039
0.48039
0.48431
0.44902
0.41569
0.40392
0.3902
0.35882
0.25882
0.17451
0.16471
0.43529
0.6
0.60588
0.42549
0.3
0.18824
0.14314
0.098039
0.062745
0.13922
0.31961
0.48039
0.57451
0.6
0.61961
0.63529
0.64118
0.6451
0.64118
0.63529
0.65098
0.6451
0.64118
0.66078
0.68039
0.70588
0.71569
0.73137
0.73529
0.76078
0.77647
0.78039
0.77647
0.77647
0.75098
0.71569
0.67647
0.64118
0.60588
0.57059
0.52549
0.49412
0.46471
0.43922
0.41961
0.41961
0.40392
0.41569
0.39412
0.40392
0.4098
0.41569
0.42549
0.41961
0.42549
0.43529
0.44902
0.43922
0.4451
0.44902
0.44902
0.44902
0.44902
0.4549
0.46471
0.46471
0.44902
0.42941
0.42549
0.38431
0.38039
0.4
0.43922
0.49412
0.5
0.47451
0.48431
0.48431
0.4902
0.4902
0.5
0.4902
0.46471
0.5
0.4902
0.47451
0.46078
0.5
0.46471
0.44902
0.46078
0.47059
0.4549
0.46471
0.47059
0.41569
0.40392
0.3902
0.3549
0.3
0.22353
0.13333
0.12353
0.3451
0.4902
0.42549
0.3098
0.2
0.094118
0.039216
0.0039216
-0.015686
0.21373
0.4098
0.52549
0.58039
0.61569
0.60588
0.61569
0.64118
0.6451
0.63529
0.6451
0.62941
0.61961
0.61569
0.68039
0.68627
0.66471
0.73137
0.72549
0.77059
0.78039
0.8
0.8
0.81176
0.77059
0.75098
0.71569
0.6451
0.6451
0.60588
0.52941
0.53529
0.4902
0.4549
0.4098
0.3902
0.32941
0.33922
0.26471
0.21373
0.23922
0.23922
0.37451
0.7
0.77647
0.6902
0.5902
0.43922
0.31373
0.18431
0.058824
0.11961
0.22941
0.33529
0.41569
0.43529
0.42549
0.43922
0.41961
0.4
0.3902
0.47059
0.5
0.51569
0.5098
0.5
0.5098
0.50588
0.5098
0.51569
0.51961
0.53529
0.52941
0.52549
0.5
0.48431
0.47451
0.46471
0.4549
0.44902
0.43922
0.4098
0.40392
0.43922
0.43529
0.43922
0.42941
0.43529
0.43922
0.42941
0.42549
0.46471
0.47451
0.46471
0.46078
0.44902
0.44902
0.47059
0.47451
0.4549
0.4549
0.46471
0.47059
0.4549
0.48039
0.47451
0.48039
0.47451
0.47451
0.48039
0.47059
0.46471
0.46078
0.47451
0.46078
0.4549
0.48039
0.47451
0.47059
0.48431
0.48039
0.48039
0.47059
0.47059
0.46471
0.47451
0.47451
0.44902
0.47451
0.4902
0.48039
0.47451
0.48039
0.4902
0.48039
0.47451
0.47059
0.47451
0.47451
0.46471
0.47059
0.47451
0.47451
0.47451
0.48431
0.48039
0.47451
0.48039
0.48431
0.48039
0.47451
0.47059
0.47059
0.4549
0.44902
0.49412
0.5
0.48039
0.47451
0.44902
0.43529
0.39412
0.38039
0.3902
0.41961
0.47059
0.48039
0.4902
0.48431
0.49412
0.4902
0.5
0.51961
0.5098
0.51569
0.51961
0.50588
0.5098
0.5098
0.50588
0.49412
0.48431
0.49412
0.5
0.49412
0.48431
0.47059
0.43529
0.40392
0.41569
0.38431
0.29412
0.2098
0.18431
0.39412
0.59608
0.61961
0.47059
0.32353
0.20392
0.14314
0.098039
0.062745
0.058824
0.29412
0.48039
0.5902
0.6098
0.61961
0.62941
0.65098
0.65098
0.6549
0.66078
0.6451
0.68627
0.6902
0.69608
0.6902
0.7098
0.72549
0.7451
0.77059
0.78627
0.78627
0.79608
0.79608
0.8
0.78039
0.7549
0.71569
0.67647
0.63529
0.60588
0.57059
0.52941
0.48431
0.4549
0.4451
0.42941
0.42549
0.4098
0.40392
0.40392
0.4098
0.40392
0.41961
0.41569
0.41569
0.43529
0.4451
0.42549
0.44902
0.44902
0.4549
0.46078
0.4549
0.46078
0.44902
0.44902
0.46078
0.4451
0.42941
0.42549
0.3902
0.37451
0.38039
0.41569
0.47451
0.46078
0.44902
0.47451
0.47451
0.47059
0.47451
0.49412
0.4902
0.4902
0.5
0.48039
0.4902
0.47451
0.47451
0.47451
0.46471
0.46078
0.46471
0.46078
0.47451
0.47059
0.42941
0.3902
0.37451
0.34902
0.3098
0.22353
0.1549
0.23333
0.46078
0.59608
0.52941
0.37451
0.22353
0.13922
0.10392
0.058824
0.023529
0.12353
0.32941
0.51569
0.58431
0.6098
0.61961
0.64118
0.61961
0.64118
0.6451
0.64118
0.6549
0.66471
0.67059
0.68039
0.69608
0.7
0.74118
0.76078
0.78039
0.8
0.81176
0.83529
0.82549
0.82549
0.79608
0.76078
0.72157
0.66471
0.63529
0.58431
0.5098
0.4902
0.5
0.4549
0.3902
0.3549
0.29412
0.2098
0.21373
0.22353
0.3451
0.69608
0.81176
0.7
0.52941
0.39412
0.27451
0.13922
0.068627
0.039216
0.14314
0.2451
0.3549
0.43922
0.4902
0.48431
0.47451
0.4451
0.42941
0.44902
0.4902
0.53922
0.55098
0.5549
0.55098
0.53529
0.55098
0.56078
0.56471
0.57451
0.56471
0.5451
0.5451
0.52549
0.5
0.49412
0.47451
0.47451
0.4549
0.43529
0.42549
0.4098
0.41961
0.41961
0.40392
0.41961
0.42941
0.43922
0.44902
0.4451
0.44902
0.44902
0.43922
0.44902
0.46078
0.44902
0.4549
0.46471
0.47059
0.47451
0.48039
0.47451
0.4549
0.47451
0.48039
0.48039
0.47451
0.47451
0.47451
0.46471
0.47451
0.46471
0.47059
0.47451
0.46471
0.47059
0.46471
0.46078
0.46078
0.46078
0.47059
0.47451
0.44902
0.48039
0.47451
0.47451
0.47451
0.47451
0.47059
0.46471
0.46471
0.47059
0.46078
0.46471
0.46471
0.46078
0.47059
0.4549
0.47451
0.47059
0.47451
0.47059
0.46471
0.46471
0.47059
0.46471
0.48039
0.46471
0.46471
0.47451
0.47059
0.46471
0.47451
0.47059
0.47451
0.47451
0.47059
0.4549
0.43529
0.40392
0.38039
0.37451
0.4
0.43529
0.47451
0.48431
0.48039
0.4902
0.48431
0.48431
0.5098
0.51961
0.51961
0.5098
0.50588
0.5098
0.5
0.5
0.5
0.49412
0.48431
0.49412
0.48431
0.4902
0.49412
0.4549
0.41569
0.4098
0.4
0.33922
0.2451
0.16863
0.23333
0.47451
0.61961
0.55098
0.41569
0.26863
0.18431
0.14902
0.098039
0.078431
0.18431
0.37059
0.52549
0.5902
0.6098
0.61961
0.63529
0.64118
0.64118
0.65098
0.6451
0.65098
0.66078
0.67059
0.68039
0.69608
0.70588
0.73137
0.74118
0.7549
0.77059
0.77647
0.78039
0.78627
0.77059
0.7549
0.72157
0.68627
0.6451
0.61569
0.57059
0.52941
0.4902
0.46471
0.44902
0.4451
0.42549
0.40392
0.40392
0.40392
0.4
0.41569
0.42549
0.41569
0.42549
0.43529
0.42549
0.42549
0.43529
0.44902
0.44902
0.44902
0.4549
0.44902
0.4549
0.46078
0.46078
0.4549
0.46471
0.47059
0.42941
0.37451
0.36471
0.38039
0.42549
0.46471
0.47451
0.47451
0.47451
0.47059
0.46471
0.47451
0.4902
0.5
0.49412
0.49412
0.48431
0.48039
0.47451
0.47451
0.47059
0.46471
0.47059
0.46471
0.4549
0.47059
0.46078
0.43529
0.40392
0.4
0.37451
0.33922
0.22941
0.13922
0.12353
0.3098
0.48431
0.51569
0.3451
0.22353
0.11373
0.052941
0.0039216
-0.0058824
0.13333
0.3549
0.52549
0.58431
0.6098
0.61569
0.6098
0.61961
0.61569
0.62941
0.63529
0.64118
0.64118
0.65098
0.66078
0.68039
0.70588
0.72157
0.74118
0.7549
0.78039
0.8
0.80588
0.81569
0.79608
0.77647
0.74118
0.70588
0.6549
0.58039
0.4902
0.40392
0.30392
0.26471
0.2549
0.44902
0.78627
0.8451
0.78627
0.7
0.56471
0.41961
0.2451
0.12941
0.098039
0.1098
0.20392
0.33922
0.42941
0.4549
0.46078
0.4549
0.4549
0.46078
0.4549
0.44902
0.42941
0.42941
0.41961
0.38039
0.33529
0.3098
0.31961
0.3451
0.3902
0.4
0.38039
0.3549
0.3549
0.3451
0.3549
0.37059
0.3902
0.4
0.4
0.41569
0.4098
0.41961
0.42941
0.4451
0.44902
0.46078
0.46078
0.46471
0.47451
0.48039
0.48431
0.47451
0.5
0.49412
0.4902
0.48039
0.48039
0.5
0.4902
0.47451
0.48431
0.47451
0.48039
0.48039
0.48431
0.47451
0.47451
0.48431
0.4902
0.47451
0.47451
0.47451
0.47451
0.48431
0.47451
0.4902
0.47451
0.47451
0.47451
0.47059
0.47059
0.47451
0.48039
0.48039
0.47451
0.4902
0.49412
0.47451
0.47451
0.47451
0.47059
0.48431
0.48431
0.47451
0.47451
0.48431
0.47451
0.4902
0.4902
0.47451
0.49412
0.49412
0.48431
0.46471
0.47059
0.47451
0.4902
0.47059
0.46471
0.48431
0.4902
0.47451
0.49412
0.47451
0.48431
0.47451
0.47059
0.46471
0.47451
0.47059
0.47451
0.46471
0.47059
0.47451
0.47059
0.4549
0.46078
0.43529
0.38431
0.36471
0.38039
0.4098
0.4549
0.46078
0.47451
0.4902
0.5
0.51569
0.51961
0.51961
0.51961
0.50588
0.5
0.5
0.50588
0.5
0.5098
0.48431
0.5
0.5
0.4902
0.48431
0.5
0.4451
0.41569
0.39412
0.38431
0.3451
0.24902
0.18824
0.26863
0.50588
0.64118
0.5549
0.41569
0.27451
0.17451
0.12353
0.07451
0.029412
0.14314
0.34902
0.51569
0.5902
0.61569
0.62941
0.6451
0.65098
0.66078
0.65098
0.66078
0.67059
0.68627
0.68627
0.68627
0.7
0.70588
0.72549
0.7451
0.7549
0.78039
0.78039
0.78627
0.7902
0.77647
0.76078
0.75098
0.71569
0.67647
0.63529
0.59608
0.5549
0.51569
0.48039
0.44902
0.43922
0.42549
0.4098
0.40392
0.4
0.40392
0.4098
0.41569
0.40392
0.41961
0.40392
0.42549
0.41961
0.42941
0.43922
0.43529
0.43922
0.4451
0.4549
0.44902
0.46078
0.44902
0.43922
0.43529
0.41961
0.3902
0.38431
0.4
0.41961
0.47059
0.49412
0.47451
0.47451
0.47451
0.47059
0.4902
0.5
0.5
0.5
0.5
0.4902
0.49412
0.4902
0.48039
0.47451
0.48039
0.48039
0.48039
0.47451
0.46471
0.47451
0.47059
0.41569
0.3902
0.37059
0.3549
0.27451
0.18431
0.1549
0.2902
0.50588
0.5549
0.40392
0.2902
0.17843
0.12353
0.088235
0.07451
0.062745
0.27451
0.46078
0.56471
0.59608
0.6098
0.61961
0.61569
0.62941
0.62549
0.6451
0.64118
0.65098
0.66078
0.66471
0.68039
0.7
0.7098
0.73137
0.7549
0.78627
0.79608
0.81176
0.82157
0.81176
0.8
0.78039
0.73529
0.7
0.65098
0.5902
0.53922
0.5
0.46471
0.43529
0.41569
0.40392
0.39412
0.4
0.39412
0.4
0.39412
0.4
0.38431
0.40392
0.41961
0.4098
0.4098
0.41569
0.42549
0.42549
0.43529
0.43922
0.44902
0.4451
0.44902
0.44902
0.44902
0.43922
0.41569
0.38039
0.36471
0.37451
0.41961
0.47451
0.48431
0.47451
0.47059
0.47451
0.46078
0.48039
0.49412
0.5
0.49412
0.4902
0.48431
0.48039
0.47451
0.47451
0.47451
0.46078
0.4549
0.46471
0.46471
0.47059
0.44902
0.4451
0.41569
0.4
0.36471
0.33922
0.2451
0.14902
0.11961
0.28431
0.49412
0.53922
0.4
0.26471
0.14314
0.084314
0.039216
0.033333
0.11961
0.3098
0.48039
0.57059
0.6
0.6098
0.6
0.61569
0.61569
0.62549
0.61961
0.6451
0.65098
0.6549
0.66471
0.67647
0.6902
0.71569
0.73529
0.7549
0.78039
0.80588
0.82157
0.80588
0.8
0.78627
0.7549
0.72157
0.67647
0.61961
0.57451
0.53529
0.49412
0.46078
0.42549
0.40392
0.4
0.39412
0.3902
0.4
0.39412
0.3902
0.4
0.4
0.4098
0.42549
0.41961
0.4098
0.42549
0.42549
0.42941
0.43529
0.4451
0.4549
0.4451
0.43529
0.42941
0.43529
0.43922
0.4098
0.36471
0.34902
0.35882
0.39412
0.4451
0.46471
0.44902
0.44902
0.4549
0.47059
0.47451
0.48431
0.4902
0.48431
0.4902
0.48039
0.47451
0.47059
0.47059
0.46471
0.47059
0.4451
0.44902
0.46078
0.46078
0.4549
0.43529
0.40392
0.4
0.37059
0.33922
0.24902
0.15882
0.11961
0.3
0.5098
0.5451
0.39412
0.2549
0.14314
0.078431
0.029412
0.013725
0.12353
0.31961
0.5
0.58431
0.6
0.60588
0.61569
0.62549
0.62549
0.64118
0.64118
0.64118
0.65098
0.66078
0.66471
0.67647
0.68627
0.72157
0.74118
0.7549
0.78627
0.8
0.81176
0.82157
0.82157
0.7902
0.76078
0.71569
0.66078
0.61961
0.57059
0.53922
0.49412
0.4549
0.43529
0.41569
0.40392
0.40392
0.4
0.3902
0.4
0.3902
0.4
0.40392
0.41569
0.41961
0.41569
0.42549
0.42549
0.43529
0.42549
0.42941
0.43922
0.4451
0.44902
0.44902
0.44902
0.44902
0.4451
0.41569
0.37451
0.3549
0.37451
0.39412
0.44902
0.46078
0.4549
0.46078
0.46471
0.47059
0.47451
0.4902
0.5
0.4902
0.47451
0.47451
0.48431
0.47059
0.46471
0.47451
0.46471
0.46471
0.46078
0.46078
0.46078
0.46078
0.4451
0.4098
0.38431
0.37059
0.3451
0.24902
0.16471
0.14314
0.31961
0.52549
0.5549
0.39412
0.25882
0.13333
0.068627
0.029412
0.0039216
0.062745
0.26471
0.46471
0.58431
0.61569
0.61569
0.61961
0.61569
0.63529
0.6549
0.6549
0.6549
0.6451
0.66078
0.67059
0.69608
0.70588
0.72549
0.75098
0.78039
0.8
0.8
0.81569
0.82549
0.82549
0.81176
0.76667
0.73137
0.69608
0.63529
0.59608
0.53922
0.51569
0.47059
0.4549
0.41569
0.38431
0.38431
0.39412
0.3902
0.39412
0.37451
0.37451
0.39412
0.40392
0.3902
0.4098
0.40392
0.4098
0.40392
0.4098
0.41961
0.42549
0.43529
0.42549
0.43529
0.4
0.41961
0.42549
0.37451
0.3549
0.36471
0.35882
0.42549
0.43922
0.42549
0.4549
0.46078
0.46471
0.47059
0.48431
0.5
0.46078
0.44902
0.49412
0.46471
0.46078
0.47451
0.46471
0.44902
0.47451
0.46078
0.42941
0.47451
0.4549
0.46078
0.39412
0.37451
0.35882
0.33922
0.27451
0.17843
0.14314
0.27451
0.51961
0.58431
0.48039
0.34902
0.18824
0.11373
0.084314
0.04902
0.023529
0.16863
0.3451
0.50588
0.57451
0.61569
0.6
0.6098
0.61569
0.60588
0.62941
0.63529
0.6451
0.6549
0.6549
0.64118
0.68627
0.7098
0.72549
0.7451
0.7549
0.79608
0.7902
0.78627
0.80588
0.7902
0.77059
0.75098
0.71569
0.66078
0.61569
0.5549
0.51569
0.48431
0.46078
0.41961
0.39412
0.4
0.40392
0.4
0.4
0.39412
0.4
0.40392
0.4
0.40392
0.39412
0.40392
0.4
0.3902
0.42549
0.42941
0.42941
0.42941
0.4451
0.43529
0.42549
0.4
0.4098
0.38039
0.37451
0.38431
0.4098
0.48039
0.47059
0.47451
0.47451
0.47451
0.47451
0.48431
0.5
0.5
0.5
0.48431
0.46078
0.44902
0.49412
0.49412
0.47451
0.47059
0.47451
0.46471
0.46078
0.46471
0.47059
0.4451
0.4098
0.3902
0.35882
0.33922
0.23922
0.1549
0.13922
0.32353
0.52941
0.5549
0.39412
0.27451
0.17843
0.13922
0.10392
0.098039
0.094118
0.3098
0.4549
0.5549
0.59608
0.61569
0.61961
0.62941
0.62549
0.62549
0.63529
0.64118
0.62941
0.6549
0.67059
0.68039
0.68627
0.69608
0.73137
0.75098
0.78627
0.8
0.81176
0.81176
0.82549
0.8
0.77059
0.72157
0.67059
0.62941
0.57451
0.52549
0.50588
0.46078
0.42941
0.4098
0.4
0.39412
0.4
0.38039
0.37451
0.38039
0.40392
0.40392
0.40392
0.4098
0.40392
0.40392
0.41961
0.42549
0.42549
0.41961
0.41569
0.43529
0.43529
0.43922
0.43529
0.43922
0.40392
0.38039
0.3549
0.38039
0.41569
0.46078
0.48431
0.48039
0.47059
0.47451
0.47451
0.48431
0.4902
0.5
0.5
0.4902
0.49412
0.5
0.47451
0.47059
0.47451
0.48039
0.47059
0.47451
0.47059
0.46078
0.44902
0.43922
0.41961
0.40392
0.37451
0.34902
0.2902
0.17843
0.12941
0.23922
0.4451
0.51961
0.41961
0.29412
0.16471
0.098039
0.04902
0.029412
0.094118
0.28431
0.46471
0.57451
0.59608
0.61569
0.62549
0.63529
0.62941
0.62549
0.63529
0.6451
0.6451
0.64118
0.6549
0.68039
0.7
0.71569
0.73137
0.75098
0.78039
0.8
0.8
0.81569
0.8
0.78627
0.77647
0.72549
0.67647
0.61961
0.58431
0.52941
0.5
0.46471
0.43922
0.42549
0.40392
0.3902
0.40392
0.39412
0.4
0.40392
0.40392
0.4098
0.41961
0.42549
0.4098
0.42549
0.41569
0.42549
0.42941
0.43529
0.43922
0.44902
0.44902
0.44902
0.43922
0.44902
0.4451
0.40392
0.35882
0.3451
0.32941
0.39412
0.47451
0.48431
0.44902
0.4451
0.4549
0.47059
0.49412
0.5
0.4902
0.48431
0.48039
0.48431
0.47451
0.46471
0.47059
0.44902
0.46078
0.47451
0.43529
0.46471
0.46078
0.47451
0.43529
0.4098
0.42941
0.38431
0.35882
0.24902
0.14902
0.10392
0.31961
0.52941
0.57059
0.40392
0.30392
0.15882
0.084314
0.043137
-0.0019608
0.078431
0.29412
0.48039
0.58039
0.58039
0.64118
0.65098
0.6098
0.65098
0.6549
0.6451
0.67059
0.65098
0.66078
0.61961
0.7098
0.67059
0.74118
0.79608
0.7902
0.87059
0.85098
0.82157
0.87059
0.90196
0.86078
0.80588
0.74118
0.69608
0.55098
0.6549
0.6
0.50588
0.5
0.48039
0.41569
0.35882
0.38039
0.3902
0.34902
0.3098
0.4451
0.47451
0.4098
0.36471
0.4451
0.3902
0.47451
0.48039
0.43529
0.4549
0.40392
0.41961
0.35882
0.44902
0.4451
0.44902
0.47059
0.4098
0.44902
0.38039
0.39412
0.38039
0.47451
0.43922
0.42549
0.47059
0.41961
0.42549
0.41961
0.48431
0.48431
0.46078
0.42941
0.41961
0.51961
0.47059
0.4549
0.47451
0.43922
0.4451
0.37451
0.35882
0.47451
0.46471
0.47059
0.41569
0.37451
0.31961
0.29412
0.2549
0.17451
0.088235
0.2098
0.44902
0.53529
0.42941
0.30392
0.14902
0.052941
0.088235
0.068627
0.062745
0.24902
0.41961
0.52941
0.56471
0.55098
0.6
0.61569
0.61961
0.58431
0.6098
0.6
0.62941
0.6549
0.63529
0.68627
0.7
0.7
0.7098
0.74118
0.73137
0.7549
0.78627
0.8
0.78039
0.73137
0.76667
0.78039
0.71569
0.6451
0.60588
0.5451
0.49412
0.4451
0.41569
0.41569
0.38431
0.35882
0.3549
0.3549
0.37451
0.3902
0.39412
0.38039
0.39412
0.41961
0.42549
0.4
0.38039
0.3902
0.41961
0.43922
0.43529
0.44902
0.41961
0.38431
0.37451
0.46471
0.43529
0.40392
0.38431
0.3902
0.41961
0.47059
0.48431
0.47059
0.44902
0.4549
0.43529
0.4549
0.48039
0.51961
0.52549
0.5
0.48431
0.47059
0.46078
0.46471
0.42941
0.46471
0.43529
0.46078
0.48039
0.46471
0.44902
0.40392
0.4
0.42549
0.38039
0.31961
0.22941
0.088235
0.068627
0.38039
0.55098
0.5549
0.37059
0.22353
0.10392
0.078431
0.013725
0.029412
0.15882
0.34902
0.46471
0.6
0.6451
0.65098
0.62941
0.62549
0.62941
0.62549
0.61569
0.64118
0.62941
0.64118
0.67059
0.68627
0.7098
0.70588
0.7549
0.78039
0.77647
0.8
0.77647
0.80588
0.78039
0.76667
0.75098
0.7098
0.62941
0.58431
0.47059
0.33922
0.2902
0.2451
0.3549
0.7098
0.87059
0.8
0.69608
0.58431
0.49412
0.3098
0.15882
0.084314
0.13333
0.19412
0.31961
0.42941
0.44902
0.4451
0.4098
0.4
0.48431
0.44902
0.47059
0.48039
0.42941
0.43529
0.42549
0.37059
0.3098
0.26863
0.31373
0.33529
0.37059
0.3549
0.3549
0.33529
0.3
0.29412
0.3902
0.4
0.3902
0.4
0.35882
0.41569
0.38431
0.37451
0.43529
0.48039
0.5
0.48039
0.4549
0.46471
0.47059
0.44902
0.50588
0.5098
0.4902
0.46471
0.51569
0.5
0.51961
0.52941
0.5451
0.4902
0.47451
0.48431
0.47451
0.51961
0.48431
0.50588
0.51961
0.4902
0.47059
0.4902
0.5
0.48039
0.52549
0.4902
0.48431
0.51961
0.44902
0.44902
0.47059
0.48431
0.49412
0.42549
0.47059
0.51569
0.49412
0.48431
0.4549
0.44902
0.4451
0.43922
0.5
0.49412
0.4451
0.47451
0.48431
0.47059
0.39412
0.43922
0.48431
0.5
0.51569
0.5
0.48039
0.48039
0.47059
0.44902
0.4451
0.4451
0.41961
0.38039
0.42941
0.52549
0.53922
0.51569
0.5
0.47451
0.47059
0.44902
0.42549
0.47059
0.44902
0.44902
0.48431
0.43529
0.40392
0.42941
0.41961
0.3902
0.38039
0.4098
0.41961
0.5
0.4902
0.4549
0.43922
0.48431
0.5
0.53922
0.52941
0.48431
0.5
0.51569
0.51961
0.51961
0.51961
0.5
0.44902
0.46078
0.48431
0.51961
0.52549
0.47059
0.42941
0.46078
0.40392
0.38431
0.29412
0.2098
0.1549
0.32353
0.5549
0.61961
0.4902
0.30392
0.19412
0.16471
0.10392
0.11961
0.094118
0.27843
0.44902
0.58431
0.62549
0.6451
0.65098
0.63529
0.6549
0.63529
0.68039
0.66471
0.66078
0.7
0.67059
0.68627
0.72157
0.73137
0.70588
0.77059
0.82549
0.83529
0.81569
0.78627
0.7902
0.8
0.76667
0.70588
0.64118
0.65098
0.58431
0.5902
0.5549
0.50588
0.41961
0.4098
0.44902
0.43922
0.42549
0.4
0.37451
0.41569
0.38039
0.4451
0.44902
0.4451
0.42549
0.39412
0.3902
0.4549
0.44902
0.47059
0.4549
0.4549
0.43922
0.47451
0.46078
0.43922
0.42549
0.44902
0.41961
0.3549
0.33922
0.38431
0.41569
0.44902
0.4451
0.47451
0.44902
0.47059
0.4549
0.47451
0.4902
0.5098
0.48431
0.51569
0.4902
0.47451
0.47059
0.49412
0.46471
0.44902
0.47059
0.48039
0.48431
0.47059
0.49412
0.46471
0.38431
0.39412
0.3451
0.34902
0.24902
0.17451
0.13922
0.3549
0.57451
0.59608
0.4451
0.26863
0.15882
0.094118
0.11961
0.068627
0.043137
0.22941
0.44902
0.57451
0.61569
0.62549
0.61961
0.5902
0.58431
0.65098
0.64118
0.65098
0.66078
0.67059
0.6549
0.66078
0.6098
0.76078
0.78039
0.7902
0.8
0.80588
0.79608
0.78039
0.8
0.79608
0.77647
0.7451
0.7098
0.66078
0.5902
0.56471
0.5
0.42549
0.42549
0.4549
0.43529
0.4098
0.41961
0.37451
0.37059
0.41961
0.42549
0.38039
0.3549
0.42941
0.43922
0.42549
0.41961
0.41569
0.42549
0.39412
0.38039
0.43922
0.46471
0.42941
0.41569
0.43922
0.4098
0.39412
0.38039
0.41961
0.4451
0.4549
0.4451
0.47451
0.5
0.4549
0.51569
0.49412
0.48431
0.51961
0.53922
0.50588
0.5
0.47451
0.44902
0.41961
0.48039
0.5
0.49412
0.48431
0.46078
0.43529
0.42941
0.49412
0.4451
0.36471
0.32941
0.38431
0.27451
0.15882
0.14314
0.33529
0.5451
0.57451
0.37059
0.3098
0.2
0.16471
0.10392
0.062745
0.13922
0.3098
0.44902
0.53922
0.63529
0.64118
0.62549
0.61569
0.61961
0.61569
0.62941
0.57059
0.56078
0.7098
0.67647
0.66078
0.70588
0.68627
0.74118
0.78039
0.7902
0.7451
0.73529
0.85098
0.83529
0.78039
0.72549
0.69608
0.7098
0.6549
0.6
0.51569
0.48431
0.48431
0.4451
0.41569
0.37059
0.36471
0.42549
0.40392
0.36471
0.4
0.4098
0.39412
0.3902
0.3451
0.3902
0.43529
0.44902
0.43529
0.4
0.38039
0.42941
0.44902
0.47059
0.41961
0.41569
0.40392
0.41569
0.36471
0.37451
0.3549
0.4
0.48431
0.5
0.48431
0.46078
0.42549
0.47451
0.50588
0.48039
0.47451
0.50588
0.48431
0.47451
0.5
0.46078
0.46078
0.42941
0.47451
0.46471
0.4549
0.44902
0.44902
0.4549
0.43529
0.40392
0.4098
0.35882
0.31373
0.27451
0.18431
0.13333
0.26863
0.48039
0.52549
0.38039
0.24902
0.1098
0.068627
0.07451
0.033333
0.11373
0.3098
0.47059
0.58431
0.6098
0.58431
0.63529
0.62549
0.63529
0.61569
0.63529
0.65098
0.63529
0.66078
0.61569
0.66078
0.70588
0.7098
0.7451
0.77059
0.79608
0.81569
0.82157
0.8
0.78627
0.79608
0.74118
0.7
0.6451
0.61961
0.5902
0.52941
0.5098
0.44902
0.39412
0.42941
0.44902
0.4098
0.33922
0.32353
0.4451
0.43922
0.42941
0.41569
0.38431
0.4
0.40392
0.41961
0.38039
0.37451
0.48431
0.5
0.48039
0.43922
0.4451
0.46078
0.4549
0.4451
0.39412
0.3549
0.35882
0.34902
0.4
0.42941
0.4549
0.44902
0.42549
0.46471
0.47451
0.47059
0.43922
0.42549
0.49412
0.52941
0.48431
0.47451
0.5
0.47451
0.44902
0.43529
0.47451
0.4549
0.46078
0.44902
0.47059
0.43922
0.42941
0.4
0.36471
0.3902
0.33922
0.21961
0.12353
0.1098
0.37059
0.5098
0.51569
0.37059
0.22353
0.12353
0.078431
0.033333
0.029412
0.17843
0.40392
0.53922
0.58039
0.58431
0.60588
0.59608
0.64118
0.62941
0.60588
0.63529
0.66471
0.65098
0.6451
0.67059
0.66471
0.7
0.70588
0.7549
0.77059
0.81176
0.8
0.82157
0.8
0.81569
0.77647
0.76667
0.72157
0.6549
0.6098
0.56078
0.5
0.47451
0.4451
0.44902
0.41961
0.3902
0.40392
0.38039
0.4098
0.38431
0.34902
0.41569
0.42549
0.4451
0.42549
0.41961
0.43529
0.43922
0.4098
0.42941
0.43529
0.42941
0.40392
0.43529
0.4451
0.41961
0.41569
0.4549
0.4098
0.34902
0.33529
0.3451
0.40392
0.44902
0.43529
0.44902
0.42549
0.4549
0.46471
0.48039
0.5098
0.50588
0.49412
0.5
0.4549
0.48039
0.48039
0.47059
0.4549
0.47059
0.4549
0.48039
0.43529
0.46471
0.48431
0.4451
0.39412
0.3451
0.35882
0.30392
0.20392
0.17451
0.18431
0.43529
0.61961
0.58431
0.4549
0.27843
0.17451
0.13922
0.084314
-0.0058824
0.058824
0.3
0.47059
0.58039
0.63529
0.61569
0.6098
0.64118
0.6451
0.61569
0.60588
0.62549
0.66471
0.64118
0.6451
0.60588
0.71569
0.7451
0.75098
0.77059
0.7549
0.78039
0.79608
0.7902
0.77647
0.78039
0.74118
0.73137
0.68627
0.63529
0.56471
0.5
0.50588
0.46471
0.4098
0.38039
0.43529
0.40392
0.4098
0.3902
0.3451
0.42941
0.4451
0.40392
0.38431
0.4
0.44902
0.41961
0.4
0.37059
0.39412
0.44902
0.43529
0.4451
0.42941
0.42549
0.41961
0.38431
0.35882
0.37059
0.3549
0.37451
0.42941
0.46078
0.47451
0.4451
0.47059
0.4902
0.47059
0.46078
0.49412
0.46471
0.46078
0.51569
0.4902
0.49412
0.46078
0.46471
0.47451
0.47451
0.4549
0.4549
0.44902
0.46471
0.43922
0.4098
0.4
0.33922
0.33529
0.36471
0.2098
0.12941
0.21961
0.44902
0.5902
0.49412
0.38431
0.25882
0.16863
0.12353
0.07451
0.068627
0.16863
0.3549
0.50588
0.57451
0.58039
0.57059
0.63529
0.64118
0.62549
0.61569
0.6098
0.64118
0.62941
0.66471
0.67647
0.6902
0.68627
0.7
0.75098
0.74118
0.77059
0.82549
0.81176
0.8
0.80588
0.78039
0.77647
0.72157
0.66471
0.6098
0.57059
0.5098
0.4451
0.42941
0.44902
0.4
0.38039
0.39412
0.38039
0.38431
0.3549
0.3902
0.41961
0.38039
0.41961
0.43529
0.3902
0.4098
0.41569
0.37451
0.4451
0.43922
0.4451
0.44902
0.41569
0.40392
0.4451
0.41961
0.43529
0.33529
0.38431
0.41961
0.41569
0.47451
0.47059
0.47451
0.42941
0.4902
0.52941
0.4902
0.47451
0.52549
0.51569
0.51569
0.50588
0.46078
0.43529
0.48039
0.49412
0.5
0.44902
0.4902
0.49412
0.4902
0.47451
0.4549
0.4098
0.36471
0.2902
0.32941
0.29412
0.21373
0.17451
0.3451
0.52549
0.56078
0.36471
0.23922
0.20392
0.16863
0.1098
0.098039
0.1549
0.29412
0.43922
0.5451
0.57059
0.55098
0.58039
0.61569
0.62941
0.60588
0.62941
0.64118
0.6549
0.62549
0.63529
0.66078
0.6549
0.6902
0.72549
0.7451
0.76078
0.79608
0.80588
0.81176
0.78627
0.76078
0.73137
0.7
0.64118
0.5902
0.57059
0.52941
0.49412
0.4451
0.4098
0.4
0.38039
0.3902
0.40392
0.3902
0.37059
0.4
0.4098
0.42549
0.41961
0.40392
0.40392
0.41569
0.4098
0.40392
0.42549
0.42549
0.41569
0.41961
0.40392
0.43529
0.42549
0.38431
0.3549
0.37059
0.3902
0.42941
0.48039
0.48431
0.44902
0.4451
0.50588
0.5
0.51569
0.52941
0.51961
0.50588
0.48039
0.49412
0.48431
0.48039
0.47059
0.47451
0.47451
0.47451
0.48431
0.46471
0.44902
0.44902
0.43922
0.42549
0.42549
0.38431
0.33922
0.23922
0.14314
0.098039
0.25882
0.46078
0.50588
0.3549
0.2549
0.14902
0.088235
0.033333
0.029412
0.14902
0.3549
0.50588
0.58431
0.61569
0.61569
0.62549
0.61569
0.61569
0.63529
0.6451
0.6451
0.64118
0.65098
0.66471
0.6902
0.70588
0.72549
0.73529
0.76078
0.77059
0.79608
0.82549
0.82157
0.82157
0.78627
0.74118
0.6902
0.66078
0.61961
0.56078
0.51569
0.48431
0.44902
0.42941
0.41961
0.4
0.38039
0.41961
0.42549
0.41569
0.41961
0.4098
0.4098
0.41569
0.42549
0.42549
0.43529
0.41961
0.40392
0.4451
0.46078
0.47451
0.44902
0.4451
0.4451
0.42941
0.40392
0.40392
0.3902
0.37059
0.36471
0.38431
0.41569
0.4549
0.47059
0.47451
0.44902
0.46471
0.48431
0.5
0.4902
0.48039
0.48431
0.48039
0.47451
0.46078
0.47059
0.48039
0.46471
0.47451
0.48039
0.4549
0.46471
0.47451
0.48431
0.43529
0.39412
0.38039
0.35882
0.31961
0.22353
0.13922
0.18824
0.41961
0.53922
0.47059
0.34902
0.21373
0.12353
0.068627
0.043137
0.033333
0.21961
0.42549
0.5549
0.6
0.62941
0.62549
0.62549
0.61961
0.62549
0.63529
0.6451
0.64118
0.62941
0.66471
0.68627
0.69608
0.71569
0.72549
0.7451
0.77059
0.78039
0.8
0.80588
0.7902
0.77059
0.77647
0.73137
0.72157
0.65098
0.6
0.55098
0.51569
0.47059
0.4549
0.42549
0.4098
0.40392
0.39412
0.38039
0.40392
0.41961
0.40392
0.4
0.4098
0.40392
0.41569
0.42941
0.43529
0.42941
0.42549
0.42549
0.41961
0.4549
0.44902
0.46471
0.4451
0.43922
0.41569
0.37059
0.33529
0.33529
0.37451
0.42549
0.44902
0.4451
0.4451
0.42549
0.47451
0.47451
0.48039
0.4902
0.49412
0.4902
0.48431
0.46471
0.46078
0.47059
0.44902
0.47451
0.48039
0.47059
0.46471
0.47451
0.47451
0.4549
0.4098
0.37059
0.3451
0.33529
0.31961
0.21961
0.14314
0.21961
0.46471
0.5902
0.49412
0.34902
0.21961
0.12353
0.058824
-0.015686
0.0039216
0.14902
0.34902
0.51569
0.57451
0.59608
0.61569
0.61961
0.6098
0.62549
0.61569
0.63529
0.62549
0.66078
0.66471
0.67059
0.68627
0.68627
0.72549
0.75098
0.7549
0.78627
0.8
0.8
0.8
0.79608
0.77647
0.73137
0.7098
0.66471
0.62549
0.56471
0.51569
0.48039
0.42941
0.4451
0.42941
0.40392
0.3902
0.40392
0.3902
0.38039
0.38039
0.40392
0.39412
0.41961
0.4098
0.41961
0.40392
0.42549
0.41961
0.43922
0.4098
0.42941
0.44902
0.46078
0.42941
0.40392
0.41569
0.42549
0.38039
0.37059
0.35882
0.42549
0.47059
0.42549
0.48039
0.49412
0.4902
0.47451
0.48039
0.46471
0.50588
0.47451
0.5
0.50588
0.5
0.4902
0.47059
0.46078
0.44902
0.4451
0.46078
0.4549
0.47451
0.4549
0.4451
0.4098
0.38431
0.35882
0.31373
0.22941
0.1549
0.22353
0.41961
0.57451
0.5451
0.41569
0.27451
0.15882
0.068627
0.098039
0.098039
0.16471
0.32941
0.4549
0.58039
0.61569
0.60588
0.62549
0.60588
0.63529
0.6549
0.6451
0.62941
0.64118
0.60588
0.59608
0.70588
0.69608
0.73137
0.70588
0.78039
0.77647
0.8
0.76078
0.83529
0.84118
0.7451
0.71569
0.7451
0.68039
0.58039
0.55098
0.56078
0.47059
0.5
0.43922
0.4451
0.38039
0.37451
0.34902
0.38039
0.3549
0.38431
0.35882
0.42941
0.4098
0.4098
0.4
0.38039
0.40392
0.42549
0.40392
0.4098
0.38039
0.46078
0.4451
0.43922
0.42549
0.42941
0.37451
0.35882
0.36471
0.38039
0.37059
0.4902
0.51569
0.46471
0.48039
0.5451
0.58039
0.51961
0.5549
0.57059
0.5098
0.49412
0.5451
0.52549
0.48039
0.42549
0.41569
0.44902
0.48039
0.4451
0.4549
0.46471
0.4451
0.42941
0.4
0.40392
0.32941
0.3098
0.21373
0.1098
0.13333
0.26471
0.47059
0.5
0.32353
0.2098
0.11961
0.088235
0.043137
0.043137
0.13333
0.32941
0.48431
0.57059
0.57059
0.5902
0.56471
0.65098
0.62549
0.6
0.6098
0.61961
0.6
0.65098
0.68039
0.71569
0.72549
0.67059
0.81176
0.83529
0.83529
0.82549
0.91176
0.92157
0.87647
0.83137
0.7902
0.81569
0.75098
0.69608
0.71569
0.65098
0.61961
0.58431
0.56471
0.5549
0.6098
0.6
0.62941
0.64118
0.57451
0.52941
0.53922
0.56471
0.57059
0.50588
0.5098
0.49412
0.50588
0.53922
0.52549
0.5
0.47059
0.50588
0.5451
0.51961
0.4902
0.49412
0.41961
0.44902
0.43529
0.4902
0.53529
0.62941
0.68039
0.66078
0.72157
0.7451
0.70588
0.72549
0.72157
0.82157
0.21961
-0.15686
-0.16667
-0.0058824
0.068627
0.1098
0.18824
0.19412
0.26863
0.3098
0.38431
0.3902
0.34902
0.43922
0.40392
0.39412
0.3902
0.39412
0.31961
0.21961
0.15882
0.27451
0.47451
0.53922
0.49412
0.35882
0.26863
0.1549
0.14314
0.14314
0.2098
0.33922
0.5549
0.59608
0.57451
0.64118
0.5902
0.5549
0.6
0.61961
0.63529
0.58431
0.61569
0.63529
0.64118
0.63529
0.61569
0.6549
0.68627
0.69608
0.73529
0.79608
0.78627
0.7902
0.73529
0.7098
0.73137
0.6902
0.63529
0.5549
0.52941
0.5451
0.48431
0.43529
0.39412
0.34902
0.40392
0.38431
0.3549
0.33922
0.4
0.40392
0.38431
0.35882
0.38039
0.3549
0.38039
0.38431
0.46078
0.42549
0.42549
0.43529
0.4
0.41961
0.38431
0.38039
0.41569
0.4098
0.42941
0.39412
0.40392
0.31373
0.29412
0.36471
0.43922
0.46471
0.42549
0.40392
0.4
0.4098
0.40392
0.4451
0.47059
0.44902
0.47059
0.44902
0.46078
0.43922
0.42549
0.43529
0.40392
0.4
0.41961
0.4549
0.46078
0.4549
0.42941
0.34902
0.3451
0.3549
0.33922
0.2549
0.12353
0.098039
0.23333
0.42941
0.4902
0.35882
0.22941
0.094118
0.068627
0.088235
-0.011765
0.04902
0.2902
0.46078
0.4902
0.5902
0.6098
0.56471
0.61569
0.5902
0.58431
0.66471
0.64118
0.63529
0.61961
0.64118
0.63529
0.68627
0.71569
0.7098
0.72157
0.77059
0.77647
0.76667
0.81569
0.75098
0.7098
0.78039
0.73529
0.6549
0.61961
0.6098
0.57059
0.50588
0.46078
0.39412
0.4
0.35882
0.3902
0.40392
0.36471
0.3549
0.38039
0.42549
0.41569
0.4
0.37059
0.36471
0.4
0.38039
0.43922
0.4549
0.41961
0.39412
0.42549
0.40392
0.4
0.39412
0.38039
0.43529
0.37059
0.3451
0.34902
0.33529
0.34902
0.43922
0.4451
0.4
0.37451
0.47451
0.46471
0.43529
0.40392
0.47059
0.50588
0.5098
0.4451
0.42941
0.44902
0.42549
0.47059
0.42941
0.41569
0.5
0.48431
0.46471
0.44902
0.4098
0.37451
0.41961
0.36471
0.31961
0.23922
0.16863
0.1549
0.2098
0.44902
0.56078
0.57059
0.38431
0.2098
0.10392
0.078431
0.088235
-0.0058824
0.15882
0.3549
0.50588
0.53922
0.53529
0.63529
0.66078
0.6098
0.58431
0.62941
0.61961
0.65098
0.61569
0.67059
0.63529
0.67647
0.7
0.67647
0.74118
0.73137
0.76078
0.84118
0.85686
0.81176
0.78627
0.73529
0.71569
0.68039
0.6098
0.55098
0.6
0.56078
0.4902
0.5
0.40392
0.38431
0.33922
0.3549
0.33922
0.41569
0.4098
0.37451
0.35882
0.40392
0.34902
0.3902
0.38039
0.36471
0.31373
0.4549
0.46471
0.43922
0.4098
0.4549
0.4098
0.41961
0.43922
0.44902
0.35882
0.4
0.32353
0.31373
0.43529
0.46471
0.44902
0.4451
0.4098
0.47059
0.46078
0.5
0.50588
0.48431
0.5098
0.5
0.47059
0.42941
0.37451
0.47451
0.52941
0.4902
0.43922
0.48039
0.46471
0.4549
0.43922
0.4451
0.3549
0.40392
0.38431
0.3902
0.24902
0.15882
0.14902
0.23333
0.37451
0.56078
0.4902
0.33529
0.2
0.043137
0.023529
0.04902
0.11961
0.23922
0.43529
0.5549
0.6451
0.61961
0.59608
0.57059
0.5549
0.6098
0.61961
0.62941
0.60588
0.62941
0.66078
0.6549
0.68627
0.7
0.72157
0.72549
0.76667
0.78039
0.76078
0.76078
0.80588
0.78627
0.73529
0.78039
0.72157
0.62549
0.55098
0.50588
0.47451
0.47059
0.4549
0.42941
0.43529
0.39412
0.41961
0.34902
0.3549
0.34902
0.38431
0.38039
0.37451
0.40392
0.42549
0.42549
0.41961
0.39412
0.3902
0.37059
0.4098
0.4549
0.48431
0.49412
0.41961
0.42549
0.43922
0.40392
0.41569
0.30392
0.35882
0.37059
0.41569
0.42549
0.4451
0.4
0.47451
0.4549
0.43922
0.41569
0.4902
0.46078
0.50588
0.48039
0.41961
0.47451
0.5098
0.47451
0.4549
0.42549
0.44902
0.5
0.4549
0.47451
0.41961
0.41569
0.42549
0.4451
0.41569
0.32353
0.29412
0.21373
0.1098
0.088235
0.34902
0.49412
0.46078
0.34902
0.2
0.12353
0.078431
0.013725
0.078431
0.22941
0.3451
0.5451
0.60588
0.62549
0.58431
0.57059
0.56471
0.62941
0.66078
0.62941
0.60588
0.64118
0.67647
0.62549
0.6098
0.6902
0.74118
0.80588
0.79608
0.8
0.79608
0.74118
0.7549
0.8
0.78039
0.73529
0.6902
0.65098
0.59608
0.60588
0.51569
0.43922
0.31961
0.43922
0.44902
0.42549
0.34902
0.4
0.40392
0.40392
0.38431
0.4098
0.37451
0.33922
0.42941
0.41961
0.43529
0.3902
0.43922
0.48039
0.43922
0.46471
0.47451
0.48431
0.49412
0.43922
0.3902
0.3549
0.4451
0.41569
0.32353
0.31373
0.4
0.44902
0.49412
0.47059
0.42549
0.43529
0.47059
0.46078
0.4
0.48431
0.53922
0.5451
0.48431
0.47059
0.49412
0.5
0.48039
0.5
0.47059
0.41569
0.44902
0.4902
0.47451
0.49412
0.5
0.37059
0.3451
0.40392
0.3451
0.21961
0.12941
0.098039
0.25882
0.48431
0.56471
0.4
0.26863
0.14314
0.088235
0.068627
0.084314
0.20392
0.36471
0.44902
0.5451
0.66078
0.62941
0.6
0.65098
0.6
0.63529
0.62549
0.65098
0.5902
0.60588
0.64118
0.73529
0.75098
0.70588
0.7902
0.77059
0.7549
0.7902
0.82157
0.73137
0.77059
0.81176
0.7549
0.7098
0.72549
0.63529
0.5549
0.53922
0.47059
0.43922
0.4451
0.32941
0.40392
0.46078
0.4451
0.37059
0.3451
0.42941
0.40392
0.44902
0.47451
0.4098
0.3549
0.4549
0.46471
0.43922
0.36471
0.43922
0.48431
0.47451
0.4549
0.33529
0.32941
0.5549
0.51569
0.48431
0.42941
0.43529
0.33529
0.32353
0.33922
0.35882
0.32353
0.49412
0.50588
0.47451
0.50588
0.4549
0.47451
0.51569
0.52549
0.47059
0.4549
0.5098
0.4902
0.47059
0.49412
0.44902
0.47451
0.43922
0.42549
0.49412
0.5
0.47059
0.42941
0.4098
0.4451
0.3902
0.3098
0.21373
0.15882
0.1549
0.31373
0.49412
0.58039
0.42941
0.27843
0.13333
0.084314
0.013725
0.0039216
0.088235
0.25882
0.43529
0.5098
0.61961
0.68627
0.6549
0.62549
0.6098
0.59608
0.6451
0.64118
0.67059
0.63529
0.5902
0.70588
0.69608
0.78627
0.77647
0.73529
0.80588
0.82157
0.82549
0.76667
0.81569
0.78039
0.7549
0.77647
0.67059
0.66078
0.67059
0.56471
0.5451
0.5098
0.44902
0.38039
0.4
0.40392
0.38039
0.3549
0.34902
0.3902
0.40392
0.4
0.42941
0.40392
0.42549
0.40392
0.4451
0.42549
0.41961
0.4098
0.43529
0.40392
0.43529
0.42549
0.4451
0.42941
0.46471
0.41569
0.40392
0.43529
0.36471
0.33529
0.41961
0.49412
0.42941
0.46471
0.4549
0.5
0.47059
0.40392
0.46078
0.55098
0.52549
0.46078
0.43922
0.52941
0.5
0.5
0.41569
0.48039
0.50588
0.43529
0.42549
0.47451
0.47059
0.47451
0.43922
0.40392
0.33922
0.30392
0.3098
0.1549
0.13333
0.29412
0.58039
0.63529
0.46471
0.3
0.13333
0.13922
0.088235
0.043137
0.0078431
0.21961
0.46471
0.57059
0.5902
0.56471
0.60588
0.64118
0.57451
0.6549
0.68627
0.61961
0.67647
0.64118
0.61569
0.71569
0.7098
0.68627
0.6902
0.68039
0.81569
0.78627
0.77647
0.83137
0.82157
0.79608
0.78627
0.78039
0.7
0.6451
0.5902
0.5451
0.53922
0.48431
0.4098
0.35882
0.3549
0.46078
0.41569
0.38431
0.36471
0.32941
0.32353
0.42941
0.44902
0.3451
0.41569
0.43529
0.40392
0.39412
0.38431
0.42941
0.33922
0.33529
0.4902
0.41961
0.43922
0.49412
0.50588
0.4549
0.41569
0.3451
0.34902
0.33922
0.36471
0.3549
0.5098
0.51961
0.5
0.5098
0.47059
0.4451
0.47451
0.4902
0.5
0.47451
0.43529
0.4902
0.44902
0.51569
0.53529
0.4902
0.44902
0.4451
0.47451
0.47059
0.44902
0.41569
0.4
0.42941
0.44902
0.36471
0.29412
0.23333
0.1098
0.098039
0.4098
0.53922
0.42549
0.3
0.23922
0.12941
0.13333
0.039216
0.013725
0.21961
0.39412
0.51961
0.5451
0.56471
0.62941
0.66078
0.64118
0.61569
0.6549
0.61569
0.6549
0.63529
0.67647
0.63529
0.66471
0.64118
0.63529
0.74118
0.83137
0.84118
0.79608
0.85686
0.84118
0.80588
0.75098
0.7
0.66078
0.69608
0.58431
0.57059
0.53922
0.50588
0.47451
0.47451
0.41569
0.3902
0.40392
0.37059
0.31373
0.4
0.37451
0.43922
0.39412
0.34902
0.49412
0.48039
0.4549
0.43529
0.41961
0.4
0.4451
0.38431
0.44902
0.41569
0.46471
0.48039
0.46471
0.41961
0.4451
0.41961
0.37059
0.31373
0.34902
0.39412
0.5
0.5098
0.46078
0.42941
0.4549
0.46078
0.43922
0.3902
0.5
0.5451
0.52941
0.43922
0.47451
0.49412
0.52549
0.49412
0.46471
0.40392
0.39412
0.48431
0.51569
0.49412
0.46078
0.37059
0.4098
0.41569
0.36471
0.3
0.15882
0.084314
0.2098
0.47451
0.57059
0.47059
0.32353
0.21961
0.1549
0.11961
0.068627
0.04902
0.2549
0.42941
0.49412
0.64118
0.67647
0.63529
0.61569
0.6451
0.61569
0.67647
0.70588
0.67647
0.6549
0.62941
0.61569
0.72157
0.73529
0.72157
0.70588
0.81569
0.82549
0.85686
0.87647
0.86078
0.81569
0.74118
0.7098
0.67647
0.68627
0.58039
0.5451
0.56078
0.48431
0.5098
0.42941
0.3902
0.42549
0.4
0.3549
0.42941
0.4451
0.42549
0.36471
0.41961
0.37451
0.37059
0.42549
0.46078
0.4451
0.44902
0.47059
0.4549
0.46078
0.43922
0.4098
0.48431
0.43529
0.4098
0.3902
0.46471
0.47451
0.39412
0.3451
0.38039
0.39412
0.47451
0.47451
0.48431
0.4902
0.49412
0.47451
0.49412
0.52941
0.55098
0.51569
0.5902
0.6098
0.58431
0.56471
0.53529
0.48431
0.4549
0.42941
0.43922
0.40392
0.44902
0.52549
0.5451
0.49412
0.47059
0.3902
0.41961
0.29412
0.18824
0.15882
0.3
0.4902
0.57451
0.43529
0.26863
0.088235
0.11961
0.088235
0.017647
0.084314
0.2902
0.39412
0.5451
0.64118
0.6098
0.67059
0.66078
0.6098
0.62941
0.6098
0.61569
0.53922
0.69608
0.74118
0.77647
0.7549
0.73529
0.74118
0.73137
0.76667
0.77647
0.7549
0.8451
0.80588
0.82549
0.8
0.72157
0.7
0.66471
0.62549
0.56471
0.48431
0.4451
0.46078
0.47451
0.39412
0.38431
0.42549
0.4
0.35882
0.31373
0.40392
0.44902
0.46471
0.37059
0.3549
0.42549
0.43529
0.42941
0.43529
0.41569
0.3902
0.32353
0.36471
0.44902
0.5098
0.52549
0.47059
0.42549
0.40392
0.3549
0.31373
0.29412
0.40392
0.48039
0.4549
0.4451
0.43529
0.4902
0.4549
0.5
0.49412
0.5
0.50588
0.4451
0.4098
0.38431
0.46078
0.53529
0.51961
0.49412
0.47059
0.47451
0.43529
0.46078
0.47059
0.3902
0.39412
0.41569
0.37451
0.30392
0.21961
0.18431
0.17843
0.40392
0.6
0.56078
0.3549
0.2
0.18431
0.21373
0.10392
0.052941
0.039216
0.22353
0.4
0.4902
0.62941
0.60588
0.62941
0.6098
0.6549
0.62941
0.6098
0.62941
0.6
0.64118
0.5549
0.66471
0.6902
0.68039
0.77059
0.76078
0.8
0.7902
0.76078
0.71569
0.70588
0.83137
0.8
0.75098
0.67059
0.56471
0.55098
0.58039
0.49412
0.4451
0.37451
0.42941
0.47451
0.43529
0.37059
0.4
0.38039
0.35882
0.38039
0.36471
0.4
0.28431
0.26471
0.46471
0.42549
0.41961
0.41961
0.42549
0.38039
0.39412
0.38039
0.3
0.43529
0.53529
0.4902
0.41569
0.38039
0.3549
0.32941
0.32353
0.4451
0.47059
0.42941
0.4098
0.4451
0.41569
0.53922
0.53529
0.49412
0.48039
0.44902
0.42941
0.38431
0.4451
0.52941
0.5549
0.5
0.5
0.5
0.47059
0.43922
0.3451
0.40392
0.48039
0.40392
0.3902
0.36471
0.22941
0.16471
0.14314
0.19412
0.36471
0.4902
0.4
0.33922
0.2098
0.11373
0.052941
-0.011765
-0.031373
0.30392
0.46078
0.58431
0.5098
0.6
0.68039
0.64118
0.62549
0.63529
0.5098
0.62941
0.69608
0.66078
0.68627
0.68039
0.7
0.67059
0.73137
0.74118
0.73137
0.78039
0.69608
0.76667
0.8451
0.85686
0.77059
0.69608
0.62549
0.6
0.6098
0.5451
0.51569
0.50588
0.43529
0.4
0.42941
0.4098
0.38039
0.3549
0.27843
0.4
0.48431
0.47059
0.43922
0.37059
0.41961
0.4451
0.44902
0.42549
0.3902
0.33922
0.47451
0.5
0.48039
0.46078
0.35882
0.42941
0.47059
0.43529
0.37059
0.32941
0.38039
0.41569
0.43922
0.43529
0.47059
0.37059
0.36471
0.47451
0.52941
0.5098
0.50588
0.53922
0.5098
0.42941
0.41961
0.47059
0.48431
0.47059
0.5098
0.47451
0.46471
0.4451
0.42549
0.48039
0.50588
0.4549
0.41961
0.37451
0.2902
0.27843
0.14902
0.21961
0.20392
0.43529
0.5451
0.55098
0.37451
0.22941
0.098039
0.062745
0.078431
-0.027451
0.18431
0.47059
0.5902
0.6
0.6098
0.5549
0.60588
0.58039
0.67059
0.64118
0.62941
0.5902
0.64118
0.65098
0.67059
0.6902
0.72549
0.67059
0.73529
0.7902
0.77647
0.80588
0.79608
0.7549
0.78039
0.80588
0.74118
0.62549
0.6098
0.67059
0.57451
0.51961
0.43529
0.39412
0.44902
0.47451
0.4098
0.37451
0.4098
0.38039
0.3098
0.44902
0.49412
0.4451
0.42941
0.4098
0.3451
0.31961
0.41569
0.47451
0.48431
0.46471
0.42941
0.38039
0.48039
0.43529
0.41961
0.48039
0.48431
0.39412
0.37059
0.3549
0.37059
0.3902
0.40392
0.39412
0.3902
0.47059
0.4549
0.5098
0.53529
0.51569
0.49412
0.4549
0.4451
0.48039
0.4549
0.47451
0.41961
0.41569
0.52549
0.4902
0.5
0.47059
0.42549
0.48431
0.51569
0.43922
0.3902
0.4
0.29412
0.26471
0.27451
0.1549
0.25882
0.46471
0.51569
0.46078
0.33529
0.14314
0.068627
0.078431
0.043137
0.033333
0.19412
0.4451
0.57451
0.5902
0.58039
0.61961
0.6
0.62941
0.62941
0.6
0.5902
0.6549
0.7
0.7098
0.69608
0.7
0.6902
0.74118
0.72549
0.77059
0.74118
0.82157
0.8
0.77647
0.8
0.79608
0.7451
0.7098
0.72157
0.6451
0.58039
0.53922
0.48039
0.43529
0.3902
0.36471
0.43529
0.41961
0.38039
0.4098
0.39412
0.38431
0.36471
0.40392
0.41569
0.33529
0.42549
0.44902
0.43922
0.42549
0.44902
0.44902
0.41569
0.37451
0.4549
0.46078
0.42549
0.3902
0.39412
0.37451
0.3451
0.4
0.37451
0.41569
0.46078
0.47059
0.46078
0.4902
0.50588
0.48039
0.4549
0.47451
0.47451
0.47059
0.44902
0.4451
0.4098
0.5
0.48039
0.49412
0.46471
0.42941
0.4
0.51961
0.51569
0.48039
0.46471
0.4
0.38039
0.3098
0.36471
0.26471
0.1549
0.12941
0.4
0.58039
0.5902
0.4451
0.2902
0.16863
0.10392
0.04902
0.023529
0.084314
0.33529
0.4902
0.53922
0.57059
0.61961
0.63529
0.62549
0.66078
0.62941
0.6
0.62549
0.6549
0.66078
0.64118
0.64118
0.67059
0.72549
0.74118
0.77647
0.76667
0.80588
0.81176
0.77647
0.7451
0.77059
0.73529
0.71569
0.6451
0.62549
0.57059
0.57451
0.5451
0.48039
0.43529
0.41961
0.4
0.37059
0.36471
0.3549
0.38039
0.3902
0.32941
0.41569
0.4
0.41961
0.40392
0.42941
0.43529
0.42549
0.41569
0.41961
0.42941
0.42549
0.40392
0.41569
0.40392
0.39412
0.41569
0.37059
0.3549
0.38039
0.4098
0.43529
0.42941
0.47059
0.47451
0.47059
0.47451
0.46471
0.46471
0.47451
0.47451
0.5
0.49412
0.48039
0.47059
0.44902
0.44902
0.47059
0.4549
0.4451
0.43922
0.4549
0.47451
0.46078
0.43922
0.38431
0.37059
0.36471
0.3
0.2
0.12941
0.20392
0.41569
0.5
0.4
0.3
0.18431
0.098039
0.043137
0.068627
0.062745
0.28431
0.43922
0.53529
0.60588
0.62549
0.62941
0.62549
0.60588
0.62549
0.62941
0.61961
0.62549
0.6549
0.66078
0.68039
0.66471
0.69608
0.72549
0.7549
0.78039
0.8
0.80588
0.8
0.8
0.78039
0.77647
0.7549
0.7
0.76667
0.57059
0.56471
0.5098
0.4902
0.47059
0.42941
0.40392
0.39412
0.4
0.3902
0.40392
0.3902
0.40392
0.39412
0.42549
0.42941
0.43529
0.42549
0.42549
0.43529
0.42549
0.3902
0.46078
0.48039
0.47059
0.47451
0.46078
0.44902
0.44902
0.43922
0.40392
0.35882
0.3549
0.38039
0.4098
0.44902
0.47451
0.46471
0.46078
0.46471
0.47059
0.4451
0.4902
0.5
0.49412
0.4902
0.47451
0.47451
0.47059
0.47451
0.46471
0.47059
0.46078
0.46078
0.46078
0.4549
0.44902
0.43529
0.39412
0.38039
0.37059
0.33529
0.2451
0.1549
0.11961
0.31961
0.51569
0.52549
0.3902
0.26471
0.15882
0.12353
0.078431
0.058824
0.17451
0.37451
0.52941
0.58431
0.61569
0.61569
0.61961
0.62549
0.64118
0.61569
0.63529
0.65098
0.66078
0.67647
0.68039
0.67647
0.69608
0.71569
0.73529
0.76078
0.79608
0.80588
0.8
0.79608
0.82157
0.79608
0.76078
0.73529
0.67059
0.61961
0.59608
0.53922
0.49412
0.46471
0.43529
0.42941
0.4098
0.39412
0.38039
0.4
0.3902
0.42549
0.41961
0.41569
0.42549
0.41961
0.42549
0.41569
0.43922
0.44902
0.43529
0.4549
0.46471
0.4549
0.4451
0.46471
0.46078
0.46078
0.4451
0.4
0.36471
0.35882
0.37451
0.42941
0.47059
0.47451
0.44902
0.4451
0.47059
0.43922
0.49412
0.5
0.49412
0.5
0.47451
0.48039
0.48039
0.47451
0.47451
0.4549
0.4549
0.4549
0.43529
0.46471
0.49412
0.48431
0.44902
0.41569
0.38431
0.3902
0.33922
0.22941
0.14902
0.13333
0.3549
0.52549
0.5451
0.33922
0.23922
0.12941
0.078431
0.029412
0.017647
0.16863
0.37059
0.53529
0.6
0.61569
0.61569
0.61961
0.60588
0.6451
0.64118
0.66078
0.66471
0.66078
0.67059
0.68627
0.7098
0.7098
0.73137
0.76078
0.77647
0.78627
0.82549
0.83529
0.85098
0.84118
0.81176
0.77647
0.73137
0.67647
0.62941
0.59608
0.56078
0.5
0.44902
0.44902
0.4549
0.41961
0.41961
0.40392
0.41569
0.4098
0.40392
0.4098
0.4
0.3902
0.41961
0.4549
0.4451
0.44902
0.42941
0.43922
0.43529
0.43922
0.43529
0.4451
0.4451
0.42941
0.43922
0.4451
0.37451
0.38039
0.37059
0.38039
0.4
0.4451
0.4549
0.44902
0.43922
0.46471
0.49412
0.48039
0.47059
0.4902
0.50588
0.49412
0.48039
0.5
0.48431
0.4549
0.46078
0.47059
0.4549
0.44902
0.4549
0.47451
0.4902
0.44902
0.39412
0.40392
0.37451
0.32941
0.23922
0.15882
0.14314
0.4098
0.6
0.61569
0.43922
0.28431
0.17451
0.16471
0.094118
0.052941
0.023529
0.2451
0.46471
0.58039
0.6098
0.61569
0.61961
0.59608
0.62941
0.6451
0.64118
0.65098
0.63529
0.67647
0.67059
0.68039
0.70588
0.72549
0.74118
0.7549
0.78039
0.78627
0.81176
0.78627
0.78039
0.7902
0.79608
0.73529
0.6902
0.6451
0.6
0.56078
0.49412
0.42941
0.44902
0.4549
0.41569
0.38039
0.4
0.40392
0.4
0.40392
0.4
0.37451
0.39412
0.4
0.38039
0.42941
0.43529
0.42549
0.43529
0.40392
0.4451
0.44902
0.42941
0.41961
0.40392
0.38431
0.43529
0.40392
0.3902
0.4
0.42549
0.47059
0.47451
0.46471
0.47451
0.46078
0.50588
0.4902
0.48039
0.51961
0.51961
0.49412
0.4902
0.47451
0.4902
0.47059
0.48039
0.47451
0.46471
0.47059
0.44902
0.47059
0.4902
0.46471
0.4098
0.3902
0.38431
0.35882
0.26863
0.17843
0.13922
0.27843
0.48431
0.5098
0.3902
0.29412
0.2
0.17451
0.12941
0.098039
0.088235
0.29412
0.47059
0.56078
0.6
0.58431
0.61569
0.6098
0.62549
0.64118
0.64118
0.65098
0.64118
0.6549
0.66078
0.64118
0.68627
0.71569
0.72549
0.7098
0.78627
0.81569
0.83137
0.83529
0.81569
0.8
0.77059
0.72549
0.68627
0.6
0.58431
0.5902
0.51569
0.4902
0.4451
0.4098
0.39412
0.4098
0.41569
0.40392
0.4
0.37451
0.37059
0.40392
0.41961
0.4098
0.41569
0.42941
0.42549
0.4098
0.41961
0.43529
0.41961
0.43922
0.4451
0.42549
0.4451
0.46078
0.42549
0.39412
0.37451
0.37059
0.3902
0.43529
0.47451
0.43529
0.46471
0.47451
0.4549
0.4902
0.48039
0.49412
0.50588
0.48431
0.49412
0.48039
0.47059
0.4549
0.4451
0.43922
0.4902
0.47451
0.47059
0.43529
0.47451
0.47059
0.4451
0.41569
0.3902
0.35882
0.3451
0.23922
0.13922
0.10392
0.31373
0.48039
0.49412
0.3902
0.27843
0.16471
0.094118
0.058824
0.052941
0.16863
0.38039
0.52549
0.58431
0.59608
0.5902
0.58039
0.61961
0.61569
0.63529
0.62941
0.65098
0.65098
0.62941
0.65098
0.67647
0.7
0.72157
0.71569
0.74118
0.77647
0.76078
0.81176
0.82157
0.81176
0.78039
0.75098
0.68039
0.65098
0.6098
0.57451
0.51569
0.46471
0.4451
0.41961
0.42941
0.41569
0.4098
0.38039
0.4
0.4098
0.4
0.39412
0.40392
0.4098
0.39412
0.4098
0.4098
0.43529
0.42549
0.4451
0.41569
0.43922
0.44902
0.4451
0.4451
0.44902
0.43922
0.42549
0.42549
0.40392
0.33922
0.33529
0.3549
0.3902
0.46471
0.47451
0.46078
0.4451
0.44902
0.43922
0.47451
0.47059
0.46471
0.48039
0.48431
0.41961
0.46078
0.4549
0.46078
0.44902
0.43529
0.42549
0.4451
0.44902
0.4451
0.4451
0.39412
0.38431
0.38039
0.3549
0.31961
0.2098
0.11373
0.10392
0.30392
0.5098
0.52549
0.3451
0.23333
0.11961
0.098039
0.068627
0.058824
0.18431
0.37451
0.52941
0.58431
0.57059
0.6
0.61961
0.61569
0.60588
0.63529
0.64118
0.6451
0.62549
0.6549
0.67059
0.68627
0.68627
0.7098
0.74118
0.76078
0.78627
0.81176
0.81569
0.82157
0.79608
0.76078
0.72549
0.70588
0.65098
0.61961
0.5549
0.51961
0.48431
0.44902
0.4451
0.42549
0.4098
0.40392
0.39412
0.4
0.40392
0.37451
0.38431
0.41961
0.4451
0.44902
0.40392
0.42941
0.44902
0.4451
0.4451
0.42941
0.43922
0.42549
0.4902
0.5
0.47451
0.44902
0.4451
0.42941
0.3902
0.34902
0.35882
0.36471
0.38431
0.42549
0.46078
0.4549
0.47451
0.47451
0.48039
0.46471
0.49412
0.50588
0.49412
0.47451
0.46471
0.4902
0.48039
0.4902
0.47451
0.46471
0.47059
0.47451
0.46078
0.44902
0.42549
0.44902
0.41569
0.38039
0.37059
0.33529
0.18431
0.13922
0.2
0.4098
0.57059
0.5
0.37451
0.26863
0.15882
0.10392
0.029412
0.023529
0.1098
0.2902
0.47451
0.56078
0.61961
0.62941
0.61961
0.6549
0.62941
0.64118
0.66078
0.64118
0.67059
0.66078
0.66471
0.66078
0.7098
0.73529
0.73137
0.75098
0.78627
0.81569
0.82157
0.81176
0.8
0.78627
0.72549
0.73529
0.6902
0.63529
0.5902
0.53922
0.48039
0.47059
0.42941
0.38431
0.4098
0.38431
0.37451
0.3902
0.40392
0.36471
0.3902
0.4098
0.40392
0.38039
0.40392
0.38039
0.41961
0.42549
0.41961
0.40392
0.40392
0.44902
0.4549
0.42549
0.43529
0.43922
0.44902
0.43529
0.35882
0.34902
0.36471
0.39412
0.44902
0.48431
0.48039
0.4902
0.47451
0.50588
0.51569
0.52549
0.5098
0.56078
0.51961
0.50588
0.50588
0.49412
0.44902
0.43529
0.47059
0.4902
0.47451
0.43922
0.47451
0.48431
0.44902
0.41961
0.40392
0.38431
0.32353
0.3
0.21373
0.13922
0.11373
0.43529
0.5902
0.53922
0.40392
0.25882
0.15882
0.13333
0.07451
0.039216
0.098039
0.28431
0.4549
0.5451
0.59608
0.61961
0.61961
0.61569
0.61961
0.62941
0.6098
0.61569
0.63529
0.57451
0.67647
0.72157
0.71569
0.73137
0.73137
0.7451
0.76078
0.7902
0.81569
0.83137
0.80588
0.7451
0.73137
0.7451
0.69608
0.62941
0.57059
0.5
0.46078
0.42941
0.43529
0.3902
0.4098
0.38039
0.4
0.40392
0.39412
0.4
0.38039
0.35882
0.38039
0.36471
0.3549
0.4098
0.42549
0.39412
0.41569
0.42941
0.42549
0.41961
0.42941
0.43529
0.4098
0.41961
0.4098
0.34902
0.35882
0.34902
0.38431
0.42941
0.46078
0.44902
0.4549
0.43529
0.47059
0.46078
0.47451
0.46471
0.4451
0.48431
0.49412
0.5098
0.48431
0.47059
0.4549
0.46471
0.4549
0.46078
0.43922
0.4
0.4451
0.47451
0.46471
0.40392
0.37451
0.3451
0.33529
0.23333
0.13333
0.068627
0.16863
0.31961
0.42549
0.31961
0.22353
0.12941
0.058824
0.029412
0.04902
0.10392
0.26471
0.46078
0.56471
0.52941
0.61569
0.61961
0.61569
0.59608
0.5902
0.61961
0.6098
0.6451
0.64118
0.65098
0.6549
0.63529
0.71569
0.75098
0.7549
0.7451
0.78039
0.78039
0.82157
0.81569
0.82157
0.7549
0.71569
0.66471
0.6
0.5549
0.58039
0.53529
0.5
0.48431
0.48039
0.46471
0.42941
0.4098
0.41569
0.38039
0.40392
0.3902
0.42549
0.40392
0.41569
0.38431
0.43529
0.43922
0.4098
0.4098
0.41961
0.43529
0.41961
0.46078
0.46471
0.42941
0.43529
0.4098
0.40392
0.3902
0.36471
0.34902
0.36471
0.38039
0.42941
0.46471
0.44902
0.44902
0.4549
0.43529
0.4
0.50588
0.52941
0.48431
0.47451
0.47059
0.49412
0.5
0.50588
0.47451
0.47451
0.43922
0.42941
0.48039
0.42549
0.46078
0.48039
0.41569
0.4
0.41961
0.35882
0.26471
0.14902
0.098039
0.27451
0.49412
0.52549
0.37059
0.27451
0.17451
0.11961
0.062745
0.023529
0.13922
0.31961
0.4902
0.56078
0.5902
0.58039
0.60588
0.56471
0.64118
0.61961
0.62549
0.64118
0.64118
0.64118
0.64118
0.62941
0.64118
0.65098
0.68627
0.76078
0.76667
0.75098
0.79608
0.7902
0.8
0.77647
0.74118
0.70588
0.66078
0.57059
0.5549
0.57059
0.50588
0.48039
0.4451
0.43529
0.43529
0.41961
0.3902
0.41569
0.41569
0.41961
0.38039
0.3549
0.4451
0.42941
0.42941
0.42549
0.42549
0.43529
0.43529
0.44902
0.41569
0.42941
0.46471
0.47059
0.43922
0.47059
0.44902
0.47059
0.4451
0.42549
0.38039
0.2902
0.34902
0.37059
0.4549
0.47059
0.43922
0.43529
0.43922
0.46471
0.4549
0.4451
0.47451
0.48431
0.46471
0.46078
0.42549
0.47059
0.44902
0.4549
0.44902
0.42941
0.46078
0.43922
0.46471
0.47451
0.46078
0.42941
0.38431
0.3902
0.4
0.32941
0.18824
0.12941
0.20392
0.42941
0.52941
0.43922
0.29412
0.15882
0.088235
0.07451
0.052941
0.04902
0.23922
0.4098
0.56078
0.61569
0.61569
0.61961
0.6098
0.61569
0.61569
0.61961
0.6098
0.64118
0.6549
0.63529
0.67647
0.68627
0.72549
0.74118
0.73529
0.77059
0.8
0.80588
0.76078
0.7549
0.80588
0.7451
0.7098
0.68627
0.66078
0.60588
0.52549
0.48431
0.4549
0.43529
0.38039
0.41569
0.41961
0.42549
0.38431
0.41569
0.42549
0.40392
0.3902
0.38039
0.40392
0.41569
0.43529
0.40392
0.41961
0.42549
0.43922
0.43529
0.42941
0.43922
0.47451
0.41961
0.38039
0.48039
0.49412
0.43922
0.4549
0.41569
0.38431
0.32941
0.35882
0.4
0.46471
0.48431
0.46078
0.47059
0.43922
0.48039
0.51569
0.5098
0.52549
0.4902
0.4451
0.47059
0.46471
0.5
0.47451
0.46471
0.46078
0.4902
0.48039
0.49412
0.48431
0.43529
0.42549
0.42549
0.41961
0.3902
0.3549
0.22941
0.14902
0.13922
0.3549
0.5098
0.5451
0.39412
0.25882
0.14902
0.11961
0.0039216
-0.0019608
0.094118
0.27843
0.4902
0.6
0.6098
0.59608
0.66471
0.62549
0.65098
0.67647
0.67647
0.65098
0.64118
0.66471
0.6549
0.71569
0.73137
0.73529
0.76667
0.76078
0.79608
0.8
0.73529
0.8451
0.86078
0.8451
0.78039
0.7549
0.72549
0.65098
0.6
0.53922
0.46078
0.42941
0.4549
0.44902
0.4549
0.42941
0.3902
0.36471
0.39412
0.41961
0.42549
0.38039
0.3549
0.43922
0.43529
0.43922
0.41961
0.41569
0.42549
0.42549
0.41569
0.4549
0.46078
0.38039
0.40392
0.42549
0.46078
0.43922
0.43529
0.4098
0.37451
0.3098
0.36471
0.3451
0.33529
0.5
0.48431
0.5098
0.48431
0.48039
0.5
0.51569
0.48039
0.50588
0.47059
0.49412
0.50588
0.4902
0.5451
0.51569
0.48039
0.47451
0.48039
0.4549
0.43529
0.49412
0.48039
0.41961
0.40392
0.4098
0.37059
0.30392
0.2098
0.16471
0.23333
0.44902
0.61961
0.62941
0.37059
0.21373
0.14314
0.1549
0.058824
0.0039216
0.094118
0.30392
0.48431
0.53529
0.60588
0.64118
0.6
0.6451
0.63529
0.64118
0.64118
0.61569
0.6549
0.66078
0.68627
0.6902
0.7098
0.72157
0.78039
0.78039
0.8
0.81569
0.82157
0.7902
0.81176
0.76667
0.79608
0.73529
0.6549
0.63529
0.6
0.53529
0.4902
0.4549
0.43922
0.39412
0.38431
0.40392
0.39412
0.37059
0.40392
0.3902
0.37059
0.41569
0.40392
0.41569
0.42941
0.4
0.39412
0.4451
0.42549
0.42549
0.4098
0.4451
0.42549
0.46471
0.47451
0.42549
0.43922
0.47451
0.43922
0.38431
0.38039
0.38039
0.36471
0.47451
0.4451
0.48431
0.4902
0.46471
0.49412
0.5
0.48039
0.5
0.49412
0.47451
0.4902
0.46078
0.5
0.47451
0.49412
0.48431
0.46471
0.44902
0.4902
0.4451
0.47451
0.43529
0.3549
0.4098
0.41569
0.37451
0.24902
0.13333
0.098039
0.33922
0.53529
0.47059
0.35882
0.21961
0.17843
0.19412
0.11961
0.078431
0.1549
0.3549
0.52941
0.5902
0.59608
0.57451
0.59608
0.64118
0.62941
0.66078
0.6
0.6451
0.6549
0.66471
0.67647
0.68039
0.61569
0.77059
0.76667
0.7902
0.81569
0.8
0.83137
0.82157
0.8
0.77059
0.72549
0.73137
0.6902
0.69608
0.60588
0.55098
0.5
0.43922
0.43529
0.40392
0.4098
0.4
0.40392
0.30392
0.42549
0.46078
0.40392
0.4098
0.42941
0.41961
0.38431
0.40392
0.41961
0.38431
0.4549
0.46078
0.4549
0.46471
0.43529
0.41569
0.43529
0.44902
0.46471
0.4098
0.38431
0.49412
0.41961
0.4
0.37059
0.32353
0.3098
0.46471
0.47451
0.46078
0.41961
0.40392
0.5098
0.51961
0.5
0.49412
0.51569
0.51961
0.48039
0.46078
0.47451
0.40392
0.51961
0.53529
0.48431
0.43922
0.4902
0.51569
0.49412
0.44902
0.40392
0.4
0.32353
0.36471
0.26471
0.17451
0.15882
0.32353
0.51569
0.6
0.49412
0.3098
0.13922
0.17451
0.12941
0.058824
0.04902
0.24902
0.4098
0.51569
0.57451
0.6098
0.60588
0.6098
0.5098
0.6549
0.72157
0.6902
0.68039
0.6549
0.6451
0.6902
0.7
0.6549
0.7
0.76078
0.81176
0.7902
0.82549
0.83137
0.79608
0.78039
0.71569
0.72549
0.68039
0.61961
0.62549
0.53922
0.50588
0.52549
0.44902
0.38039
0.46078
0.41569
0.40392
0.44902
0.4098
0.38431
0.38039
0.41961
0.40392
0.3902
0.43529
0.43922
0.38431
0.4
0.41569
0.41961
0.39412
0.46078
0.43529
0.47451
0.47451
0.43922
0.41961
0.41569
0.42549
0.39412
0.3549
0.37451
0.4
0.46078
0.52549
0.5098
0.48039
0.43922
0.5
0.47059
0.49412
0.5098
0.48431
0.46078
0.48431
0.5
0.4549
0.51569
0.46471
0.44902
0.5098
0.5
0.4902
0.46471
0.4
0.43922
0.4549
0.42941
0.40392
0.32353
0.33922
0.23333
0.16863
0.18824
0.3549
0.49412
0.52549
0.35882
0.22941
0.18431
0.11961
0.058824
0.029412
0.16471
0.29412
0.52549
0.5902
0.6098
0.5902
0.57059
0.5549
0.60588
0.67647
0.66078
0.64118
0.6098
0.67647
0.68039
0.7
0.6902
0.7
0.68627
0.72549
0.82549
0.83137
0.81176
0.78627
0.80588
0.78627
0.81176
0.74118
0.6902
0.61569
0.55098
0.51961
0.47451
0.43529
0.3902
0.40392
0.41961
0.42549
0.38039
0.3549
0.4098
0.41961
0.35882
0.3902
0.43922
0.46078
0.42941
0.46078
0.42549
0.42941
0.42549
0.42941
0.42549
0.41961
0.44902
0.42941
0.41961
0.46078
0.42549
0.4098
0.44902
0.40392
0.3451
0.31373
0.36471
0.43922
0.4902
0.49412
0.43922
0.4549
0.47451
0.43529
0.5
0.51569
0.49412
0.48039
0.48431
0.49412
0.50588
0.47059
0.4451
0.48039
0.40392
0.38039
0.5
0.48039
0.47059
0.43922
0.37059
0.3902
0.40392
0.3902
0.34902
0.22941
0.12941
0.084314
0.29412
0.5
0.57451
0.42549
0.2902
0.15882
0.1098
0.029412
-0.011765
0.12353
0.34902
0.5
0.57451
0.5549
0.61961
0.66078
0.64118
0.63529
0.62549
0.64118
0.66078
0.62941
0.6549
0.64118
0.72549
0.72157
0.78039
0.78627
0.78039
0.77647
0.78627
0.78039
0.82549
0.80588
0.78627
0.73137
0.6902
0.62941
0.47059
0.60588
0.65098
0.56471
0.50588
0.4549
0.41961
0.41569
0.39412
0.38039
0.39412
0.38039
0.42549
0.41961
0.37451
0.3902
0.4
0.42941
0.41961
0.38039
0.44902
0.44902
0.43529
0.44902
0.40392
0.43922
0.44902
0.42549
0.3902
0.37059
0.5098
0.48039
0.43529
0.38039
0.33922
0.35882
0.3451
0.42549
0.42941
0.42549
0.42549
0.46078
0.4902
0.48039
0.5098
0.48431
0.48039
0.51961
0.47059
0.44902
0.49412
0.46078
0.4451
0.47451
0.47451
0.42941
0.41961
0.47059
0.49412
0.46471
0.41961
0.33922
0.37059
0.35882
0.26863
0.18824
0.17451
0.32353
0.53529
0.55098
0.49412
0.35882
0.19412
0.088235
0.058824
0.084314
0.062745
0.21373
0.40392
0.51961
0.5451
0.61961
0.60588
0.61961
0.64118
0.65098
0.59608
0.6451
0.64118
0.6549
0.63529
0.68627
0.66471
0.66078
0.73529
0.76667
0.74118
0.73529
0.76667
0.82157
0.82549
0.78627
0.76667
0.7451
0.67647
0.64118
0.6098
0.57059
0.52549
0.47059
0.4098
0.43922
0.40392
0.4
0.37451
0.3549
0.40392
0.37059
0.4
0.40392
0.3549
0.4
0.40392
0.37451
0.4451
0.43922
0.4549
0.41961
0.4451
0.4549
0.44902
0.46078
0.42549
0.38039
0.4
0.43922
0.44902
0.41961
0.4
0.3902
0.41569
0.47059
0.47451
0.43922
0.46471
0.47059
0.44902
0.47451
0.51569
0.4902
0.53922
0.51961
0.5
0.48039
0.4902
0.4902
0.4549
0.46471
0.4098
0.5098
0.52549
0.5
0.4902
0.49412
0.39412
0.40392
0.38039
0.3549
0.26863
0.11373
0.1098
0.30392
0.5098
0.59608
0.47059
0.3
0.17843
0.14314
0.098039
0.062745
0.11373
0.25882
0.40392
0.5549
0.6098
0.62941
0.5902
0.60588
0.61961
0.6451
0.6451
0.64118
0.61569
0.62941
0.62549
0.66471
0.68039
0.66078
0.75098
0.76667
0.77647
0.77059
0.8
0.78039
0.81569
0.7902
0.7549
0.7098
0.65098
0.66078
0.61961
0.53922
0.5098
0.48431
0.4451
0.42941
0.40392
0.38039
0.33922
0.32941
0.4098
0.42549
0.39412
0.35882
0.41961
0.4
0.38039
0.41569
0.39412
0.4
0.41569
0.4
0.44902
0.43922
0.42549
0.47059
0.4549
0.3902
0.47059
0.48431
0.46078
0.4098
0.3451
0.36471
0.35882
0.43922
0.48039
0.43529
0.4549
0.47059
0.46078
0.44902
0.42941
0.48039
0.49412
0.48039
0.44902
0.47451
0.51569
0.49412
0.50588
0.47451
0.43922
0.48039
0.44902
0.4549
0.48431
0.44902
0.4902
0.4451
0.42941
0.38039
0.37451
0.28431
0.17843
0.11961
0.2549
0.43922
0.48431
0.41961
0.27843
0.17451
0.13333
0.062745
0.043137
0.11961
0.32353
0.50588
0.51961
0.6098
0.61961
0.59608
0.61569
0.63529
0.58039
0.62941
0.6549
0.64118
0.62941
0.67059
0.6549
0.67059
0.67647
0.71569
0.7549
0.78039
0.77647
0.8
0.78039
0.81176
0.82549
0.76078
0.68627
0.66471
0.67647
0.58039
0.5451
0.4902
0.41961
0.4
0.38039
0.42549
0.40392
0.38431
0.35882
0.41961
0.42549
0.40392
0.38039
0.33529
0.4
0.43529
0.41569
0.38039
0.41569
0.43529
0.43922
0.41961
0.40392
0.4451
0.40392
0.46078
0.44902
0.48039
0.43529
0.4451
0.36471
0.40392
0.38039
0.31373
0.3098
0.34902
0.4451
0.46078
0.48431
0.4902
0.47451
0.46471
0.46471
0.48039
0.5
0.4098
0.52941
0.50588
0.51569
0.47451
0.4902
0.44902
0.4451
0.47451
0.46471
0.4902
0.43529
0.41961
0.4902
0.42549
0.43529
0.40392
0.3549
0.27451
0.13922
0.094118
0.22941
0.51961
0.62941
0.53529
0.38039
0.23333
0.13333
0.098039
0.084314
0.052941
0.18824
0.38039
0.50588
0.61569
0.5902
0.6451
0.64118
0.6451
0.6
0.57451
0.63529
0.60588
0.66471
0.6549
0.68039
0.68627
0.72157
0.70588
0.76078
0.76667
0.7451
0.74118
0.84118
0.79608
0.78039
0.76667
0.77059
0.72549
0.64118
0.6098
0.61569
0.53922
0.48039
0.42941
0.40392
0.41961
0.44902
0.4
0.37059
0.40392
0.41961
0.41569
0.39412
0.37451
0.39412
0.42549
0.41569
0.40392
0.38431
0.37059
0.40392
0.43529
0.4451
0.44902
0.41961
0.44902
0.43529
0.48431
0.42941
0.39412
0.34902
0.33529
0.37059
0.44902
0.48431
0.4549
0.41569
0.4549
0.52549
0.53529
0.51961
0.5098
0.47451
0.4902
0.44902
0.47059
0.52941
0.4902
0.47451
0.50588
0.44902
0.48039
0.51569
0.46471
0.44902
0.48039
0.43922
0.33922
0.39412
0.42941
0.3902
0.26471
0.13922
0.15882
0.33529
0.57451
0.6
0.38431
0.23333
0.1549
0.21373
0.1098
0.094118
0.13922
0.33529
0.49412
0.57059
0.58039
0.56078
0.61961
0.57451
0.60588
0.66471
0.67059
0.62549
0.61569
0.66078
0.6098
0.68039
0.7
0.72549
0.70588
0.77059
0.7902
0.79608
0.82157
0.83137
0.7902
0.7451
0.76667
0.74118
0.68039
0.6
0.58039
0.51569
0.50588
0.4451
0.43529
0.42549
0.40392
0.35882
0.33529
0.41961
0.41569
0.40392
0.35882
0.31373
0.41569
0.4098
0.41961
0.39412
0.4
0.33529
0.41569
0.44902
0.43922
0.4549
0.42549
0.4
0.46471
0.47451
0.4451
0.42941
0.40392
0.35882
0.4
0.40392
0.39412
0.40392
0.43922
0.48039
0.48431
0.43922
0.42549
0.44902
0.44902
0.51569
0.51961
0.50588
0.47451
0.41961
0.46471
0.48431
0.49412
0.46471
0.40392
0.36471
0.5
0.5
0.49412
0.47451
0.44902
0.40392
0.36471
0.33529
0.31373
0.32353
0.14314
0.1098
0.2549
0.41961
0.56078
0.44902
0.30392
0.18431
0.1098
0.052941
0.039216
0.029412
0.3
0.48039
0.56471
0.58431
0.57059
0.6098
0.63529
0.61961
0.6451
0.63529
0.61569
0.6451
0.68039
0.66078
0.68627
0.68039
0.6902
0.7098
0.74118
0.77059
0.78627
0.82157
0.83529
0.82549
0.78627
0.7098
0.72157
0.73137
0.66471
0.60588
0.52941
0.5
0.48039
0.4451
0.41961
0.43922
0.41569
0.38431
0.37451
0.40392
0.42549
0.40392
0.41569
0.35882
0.42941
0.44902
0.41961
0.42549
0.43922
0.4098
0.4
0.44902
0.4451
0.46078
0.46078
0.44902
0.4451
0.4549
0.43922
0.4451
0.39412
0.33922
0.36471
0.3549
0.3902
0.40392
0.3902
0.44902
0.47059
0.48039
0.4902
0.49412
0.48039
0.5
0.50588
0.47451
0.44902
0.49412
0.50588
0.4902
0.5
0.4549
0.44902
0.47451
0.46078
0.48431
0.47451
0.46078
0.40392
0.38431
0.4
0.3451
0.3549
0.22353
0.14314
0.21961
0.46471
0.58431
0.5098
0.35882
0.2098
0.12353
0.084314
0.023529
-0.0019608
0.11373
0.33922
0.51569
0.59608
0.6
0.61569
0.60588
0.61569
0.62941
0.64118
0.65098
0.65098
0.63529
0.6451
0.62941
0.65098
0.71569
0.75098
0.73137
0.71569
0.81569
0.82549
0.81176
0.82157
0.80588
0.77647
0.7549
0.70588
0.66078
0.61961
0.57451
0.52941
0.49412
0.43529
0.3902
0.43922
0.42549
0.41569
0.4098
0.4
0.37451
0.39412
0.38431
0.39412
0.37059
0.41569
0.41961
0.4
0.40392
0.42549
0.4098
0.41569
0.39412
0.4098
0.41961
0.4549
0.46471
0.43529
0.4451
0.42549
0.3902
0.36471
0.3549
0.38431
0.43922
0.47451
0.48431
0.47451
0.46078
0.47451
0.4549
0.4451
0.5
0.49412
0.49412
0.47451
0.47059
0.47451
0.47059
0.4451
0.48431
0.4902
0.46471
0.48039
0.46471
0.47059
0.4549
0.42549
0.3902
0.37451
0.3451
0.2902
0.18431
0.13333
0.23922
0.47451
0.60588
0.5549
0.4
0.2549
0.17451
0.12353
0.068627
0.058824
0.17451
0.32941
0.5098
0.5549
0.6
0.62941
0.62941
0.62549
0.6098
0.61961
0.64118
0.62549
0.65098
0.65098
0.66078
0.6451
0.7
0.72157
0.73529
0.74118
0.76667
0.7902
0.81176
0.7902
0.78039
0.80588
0.76667
0.7098
0.6549
0.57451
0.56471
0.53529
0.48431
0.43922
0.42549
0.40392
0.38039
0.36471
0.38039
0.3902
0.38431
0.38431
0.36471
0.38039
0.36471
0.40392
0.3902
0.42549
0.43529
0.42549
0.41569
0.4098
0.42549
0.43529
0.4451
0.43529
0.42549
0.42549
0.43529
0.40392
0.37451
0.37451
0.36471
0.3902
0.4549
0.48039
0.48431
0.47451
0.46471
0.4549
0.46471
0.47451
0.48431
0.47451
0.48431
0.47451
0.48039
0.4549
0.47451
0.47451
0.48039
0.47451
0.47451
0.4549
0.4451
0.44902
0.43529
0.46078
0.41569
0.4
0.37451
0.33922
0.22941
0.12941
0.088235
0.31961
0.5098
0.51961
0.33922
0.21373
0.13333
0.084314
0.039216
0.033333
0.16863
0.37451
0.51961
0.58039
0.59608
0.60588
0.5902
0.59608
0.62941
0.61961
0.6451
0.6451
0.65098
0.63529
0.66078
0.67647
0.68627
0.7
0.73137
0.7451
0.7549
0.78039
0.8
0.79608
0.78627
0.76078
0.7098
0.68627
0.66471
0.61569
0.57059
0.53529
0.48431
0.43529
0.41569
0.42549
0.4098
0.40392
0.40392
0.4
0.39412
0.4
0.40392
0.4
0.4
0.41569
0.41961
0.42549
0.41961
0.41569
0.42549
0.42941
0.4451
0.44902
0.4451
0.42941
0.4451
0.46078
0.4451
0.42549
0.42941
0.39412
0.3451
0.32941
0.3549
0.4
0.43529
0.4451
0.43922
0.44902
0.43529
0.44902
0.47451
0.47451
0.4902
0.47059
0.44902
0.48039
0.49412
0.47451
0.48039
0.47059
0.46078
0.4549
0.44902
0.44902
0.44902
0.44902
0.43529
0.40392
0.39412
0.38039
0.33922
0.24902
0.13333
0.11373
0.32353
0.51961
0.53922
0.37451
0.24902
0.1549
0.10392
0.058824
0.04902
0.15882
0.3549
0.5098
0.57451
0.6
0.60588
0.61569
0.61961
0.61961
0.61961
0.62549
0.63529
0.64118
0.6549
0.66078
0.67059
0.7
0.7098
0.72157
0.71569
0.78039
0.8
0.80588
0.8
0.7902
0.77647
0.7549
0.71569
0.67647
0.62549
0.57451
0.52549
0.49412
0.46471
0.43922
0.42549
0.41961
0.4
0.39412
0.40392
0.4
0.40392
0.4098
0.40392
0.42549
0.42549
0.42941
0.42549
0.42941
0.4451
0.43922
0.43529
0.43922
0.4549
0.4549
0.4549
0.44902
0.47059
0.4549
0.43922
0.43529
0.41961
0.38039
0.3451
0.3451
0.37059
0.4098
0.43922
0.4451
0.4549
0.4549
0.44902
0.47059
0.48431
0.4902
0.48431
0.4902
0.48039
0.48039
0.47059
0.47059
0.47059
0.4549
0.46471
0.44902
0.46471
0.47451
0.46471
0.43529
0.41961
0.40392
0.38039
0.37059
0.3
0.20392
0.13922
0.21961
0.44902
0.56078
0.46471
0.32353
0.18824
0.098039
0.052941
0.0039216
-0.0058824
0.19412
0.39412
0.5451
0.5902
0.60588
0.61569
0.61569
0.64118
0.6451
0.64118
0.6451
0.64118
0.67059
0.67647
0.66471
0.6902
0.70588
0.71569
0.75098
0.78039
0.78627
0.8
0.81569
0.81569
0.8
0.78039
0.76078
0.71569
0.66471
0.61961
0.58039
0.52941
0.5
0.46471
0.43529
0.4098
0.40392
0.38431
0.3902
0.40392
0.4098
0.4
0.40392
0.4
0.40392
0.40392
0.4098
0.41569
0.40392
0.4098
0.40392
0.42549
0.43922
0.4451
0.4451
0.4451
0.4451
0.42941
0.44902
0.4549
0.43529
0.40392
0.38431
0.34902
0.3549
0.37451
0.41961
0.4451
0.47059
0.46078
0.46078
0.4549
0.47451
0.46471
0.49412
0.48039
0.48431
0.46471
0.47451
0.44902
0.47451
0.46471
0.47059
0.46078
0.46471
0.46078
0.44902
0.4549
0.4451
0.4
0.37059
0.34902
0.3549
0.26471
0.18431
0.15882
0.3
0.52549
0.5902
0.48039
0.33529
0.20392
0.13333
0.098039
0.052941
0.029412
0.18431
0.38431
0.53529
0.58431
0.59608
0.6098
0.61569
0.61569
0.6098
0.61961
0.61569
0.64118
0.64118
0.6549
0.66078
0.68039
0.69608
0.7098
0.73137
0.7549
0.77059
0.78627
0.80588
0.8
0.78627
0.76078
0.73137
0.68627
0.64118
0.58431
0.56078
0.51569
0.47451
0.43922
0.4098
0.40392
0.39412
0.38431
0.38039
0.38039
0.38039
0.3902
0.39412
0.3902
0.38431
0.39412
0.39412
0.4098
0.40392
0.4098
0.41961
0.42941
0.42941
0.4451
0.42549
0.43922
0.43922
0.4451
0.42941
0.41961
0.40392
0.38039
0.37451
0.3902
0.41961
0.46078
0.48039
0.47451
0.47451
0.46471
0.47059
0.46471
0.48431
0.48431
0.48039
0.49412
0.49412
0.48039
0.48431
0.47451
0.46471
0.46471
0.48039
0.48431
0.46078
0.46471
0.47451
0.4549
0.4098
0.4
0.37451
0.34902
0.27451
0.18824
0.14902
0.29412
0.52549
0.57059
0.42941
0.29412
0.17843
0.13333
0.088235
0.058824
0.052941
0.2549
0.43922
0.55098
0.57451
0.59608
0.60588
0.6098
0.61569
0.60588
0.63529
0.63529
0.63529
0.64118
0.6549
0.66078
0.67059
0.6902
0.71569
0.73137
0.7549
0.78627
0.7902
0.80588
0.81176
0.78627
0.77059
0.73137
0.68039
0.63529
0.59608
0.5451
0.5098
0.47059
0.4451
0.41961
0.40392
0.38431
0.38039
0.4
0.3902
0.39412
0.3902
0.39412
0.4
0.40392
0.4
0.40392
0.4098
0.41569
0.41961
0.42549
0.42941
0.43922
0.4451
0.44902
0.4451
0.44902
0.44902
0.44902
0.43529
0.42941
0.4451
0.4
0.36471
0.3549
0.38431
0.42549
0.46078
0.44902
0.4549
0.46078
0.47059
0.46471
0.48039
0.4902
0.48431
0.48431
0.5
0.47451
0.47451
0.47059
0.47059
0.47059
0.47451
0.4549
0.44902
0.44902
0.46078
0.46471
0.42941
0.39412
0.36471
0.3549
0.31961
0.22353
0.13333
0.17451
0.38431
0.52941
0.46471
0.32353
0.21373
0.12941
0.088235
0.04902
0.043137
0.18824
0.38039
0.51961
0.57059
0.59608
0.60588
0.6098
0.61961
0.61569
0.61961
0.61961
0.63529
0.64118
0.64118
0.66078
0.67059
0.68039
0.7
0.72549
0.7549
0.77647
0.7902
0.8
0.8
0.7902
0.77059
0.73529
0.7
0.6549
0.6098
0.5549
0.51569
0.48039
0.4451
0.42549
0.4098
0.4
0.3902
0.4
0.39412
0.4
0.39412
0.38431
0.38039
0.40392
0.4098
0.4098
0.41569
0.42549
0.43529
0.43922
0.42941
0.43922
0.4451
0.4549
0.46078
0.4549
0.44902
0.42941
0.43922
0.4451
0.42941
0.4098
0.35882
0.3451
0.35882
0.40392
0.46078
0.47059
0.44902
0.44902
0.4549
0.4549
0.47059
0.47451
0.48039
0.48039
0.48039
0.47451
0.47451
0.47059
0.46471
0.46078
0.4549
0.46078
0.44902
0.4549
0.46471
0.46471
0.4451
0.4
0.38431
0.36471
0.33922
0.23922
0.14902
0.11961
0.32941
0.5098
0.53529
0.38039
0.2451
0.13922
0.088235
0.04902
0.043137
0.1549
0.34902
0.51961
0.58039
0.5902
0.60588
0.60588
0.6
0.61569
0.62549
0.62941
0.62549
0.6451
0.6549
0.66078
0.67059
0.68039
0.7098
0.72549
0.75098
0.77647
0.79608
0.8
0.80588
0.79608
0.78039
0.7549
0.71569
0.66471
0.61569
0.57451
0.52549
0.48039
0.44902
0.42941
0.42549
0.4098
0.39412
0.3902
0.41569
0.4098
0.41569
0.41961
0.4098
0.4098
0.41569
0.4098
0.42549
0.42549
0.43529
0.42941
0.43529
0.4451
0.46471
0.46471
0.46471
0.46471
0.46471
0.46078
0.47059
0.4549
0.4451
0.43529
0.41569
0.36471
0.3451
0.33922
0.39412
0.43922
0.44902
0.42941
0.46471
0.46078
0.47059
0.4902
0.50588
0.51569
0.4902
0.48431
0.48039
0.47451
0.47059
0.46471
0.47451
0.47451
0.47451
0.47451
0.47451
0.47451
0.47059
0.4549
0.4098
0.39412
0.38039
0.35882
0.27451
0.17843
0.14902
0.3098
0.52549
0.56471
0.43529
0.3098
0.17843
0.1098
0.052941
0.023529
0.0078431
0.22353
0.43529
0.56078
0.59608
0.61569
0.62941
0.61569
0.62941
0.64118
0.65098
0.65098
0.6549
0.66078
0.67059
0.67647
0.68627
0.7098
0.73529
0.7549
0.76078
0.78039
0.81569
0.82549
0.81176
0.80588
0.77647
0.73529
0.70588
0.66471
0.6098
0.56471
0.51961
0.4902
0.4451
0.41961
0.40392
0.41569
0.40392
0.40392
0.39412
0.38431
0.39412
0.39412
0.38431
0.40392
0.41569
0.40392
0.4098
0.39412
0.41961
0.42549
0.43529
0.41569
0.42549
0.4549
0.44902
0.4451
0.4549
0.4549
0.44902
0.43922
0.44902
0.42549
0.38431
0.3549
0.36471
0.39412
0.42941
0.44902
0.47059
0.46471
0.46471
0.47059
0.47451
0.48039
0.48039
0.4902
0.48039
0.48431
0.47451
0.47451
0.47059
0.47451
0.47059
0.47451
0.46471
0.44902
0.46471
0.47451
0.4451
0.4
0.37059
0.38039
0.3451
0.2549
0.16863
0.14314
0.37059
0.5902
0.61569
0.44902
0.31373
0.17843
0.11961
0.094118
0.062745
0.043137
0.23333
0.42549
0.5549
0.6
0.6098
0.61569
0.61569
0.61961
0.62941
0.62549
0.63529
0.64118
0.6451
0.6549
0.66471
0.68039
0.7
0.72157
0.7451
0.76078
0.77647
0.7902
0.79608
0.8
0.78039
0.77059
0.74118
0.6902
0.63529
0.6
0.56078
0.51961
0.47059
0.4451
0.42941
0.4098
0.38431
0.38039
0.3902
0.38431
0.38431
0.38431
0.38039
0.3902
0.39412
0.39412
0.4
0.40392
0.41961
0.41569
0.42549
0.41961
0.42549
0.42549
0.42549
0.43922
0.4451
0.43922
0.43529
0.43922
0.42941
0.39412
0.37059
0.36471
0.39412
0.42941
0.47451
0.46078
0.44902
0.48039
0.47451
0.47451
0.48039
0.49412
0.49412
0.48039
0.47451
0.47059
0.46471
0.47059
0.47451
0.47451
0.46471
0.4549
0.4549
0.4549
0.44902
0.44902
0.42941
0.39412
0.37451
0.35882
0.32353
0.22353
0.13333
0.11961
0.36471
0.51569
0.51961
0.3451
0.22353
0.13333
0.098039
0.062745
0.052941
0.17843
0.38039
0.52941
0.58039
0.5902
0.6
0.60588
0.6098
0.61569
0.61961
0.61569
0.61961
0.64118
0.6451
0.66078
0.67059
0.6902
0.7098
0.72549
0.7451
0.77059
0.78627
0.80588
0.8
0.79608
0.77647
0.74118
0.6902
0.66078
0.6098
0.57059
0.51961
0.48039
0.43922
0.41961
0.4098
0.39412
0.38039
0.38039
0.38431
0.38431
0.38431
0.38039
0.4
0.39412
0.39412
0.40392
0.40392
0.41961
0.41569
0.41569
0.42549
0.42941
0.42549
0.42941
0.43922
0.44902
0.44902
0.4549
0.4451
0.42941
0.42549
0.4098
0.36471
0.33922
0.3451
0.37059
0.41961
0.4549
0.4451
0.4451
0.4451
0.44902
0.43922
0.46471
0.47451
0.48039
0.47451
0.47059
0.46471
0.46078
0.4549
0.46078
0.44902
0.44902
0.4549
0.4549
0.44902
0.44902
0.44902
0.41961
0.38431
0.36471
0.3549
0.29412
0.2
0.11961
0.20392
0.42549
0.53529
0.44902
0.32353
0.2
0.11373
0.062745
0.043137
0.039216
0.22353
0.42549
0.55098
0.58431
0.59608
0.6
0.6098
0.61569
0.61569
0.61961
0.62941
0.64118
0.64118
0.66078
0.66471
0.68039
0.69608
0.72157
0.73137
0.75098
0.77647
0.8
0.80588
0.8
0.78627
0.76667
0.72549
0.69608
0.65098
0.6098
0.55098
0.50588
0.47059
0.43922
0.42549
0.4098
0.4
0.39412
0.4
0.39412
0.40392
0.4
0.40392
0.4098
0.41569
0.4098
0.41961
0.41961
0.42941
0.43529
0.43922
0.43922
0.44902
0.46078
0.4549
0.46078
0.46471
0.47059
0.46471
0.46471
0.4549
0.46078
0.4451
0.41569
0.37059
0.3451
0.33529
0.39412
0.46078
0.47451
0.46078
0.4549
0.47451
0.47451
0.48431
0.5
0.50588
0.5
0.48431
0.4902
0.48039
0.47451
0.47059
0.47451
0.48039
0.47451
0.46471
0.4451
0.47451
0.48039
0.46078
0.41569
0.40392
0.38431
0.35882
0.27451
0.17451
0.13922
0.27843
0.49412
0.56078
0.4098
0.27451
0.18431
0.12353
0.068627
0.052941
0.13922
0.32941
0.49412
0.57451
0.5902
0.6
0.64118
0.62549
0.61961
0.64118
0.6451
0.65098
0.6451
0.65098
0.66078
0.6549
0.68627
0.7098
0.73137
0.7549
0.76667
0.78039
0.79608
0.82549
0.81569
0.7902
0.76667
0.73137
0.68039
0.62941
0.57059
0.51569
0.50588
0.5098
0.4549
0.41961
0.41569
0.4098
0.3902
0.4
0.39412
0.4
0.38039
0.41961
0.4098
0.39412
0.4098
0.41961
0.4098
0.43922
0.44902
0.43529
0.43922
0.42549
0.44902
0.44902
0.44902
0.4549
0.4549
0.43529
0.44902
0.43922
0.44902
0.42549
0.35882
0.3451
0.33922
0.36471
0.41961
0.4549
0.44902
0.46471
0.47059
0.46078
0.4549
0.47059
0.5
0.5098
0.5
0.47451
0.47059
0.48039
0.47451
0.47451
0.46078
0.43922
0.4549
0.49412
0.51569
0.48039
0.47059
0.41961
0.39412
0.38039
0.3549
0.28431
0.18824
0.14314
0.23922
0.4902
0.56471
0.44902
0.3
0.20392
0.12941
0.07451
0.023529
0.017647
0.21373
0.42941
0.57451
0.6098
0.61961
0.5902
0.6451
0.66078
0.65098
0.65098
0.66078
0.66471
0.67059
0.66471
0.66078
0.67647
0.7098
0.7549
0.7451
0.7902
0.83529
0.84118
0.83137
0.82549
0.78039
0.81176
0.77647
0.70588
0.67059
0.58431
0.6
0.51569
0.50588
0.53922
0.47059
0.42549
0.3902
0.4549
0.43529
0.42941
0.38039
0.42549
0.43529
0.4098
0.35882
0.42941
0.4451
0.41961
0.37451
0.36471
0.47451
0.46471
0.46078
0.4451
0.4549
0.44902
0.4549
0.4451
0.46078
0.4098
0.48431
0.5
0.42941
0.3902
0.35882
0.34902
0.33529
0.4451
0.42549
0.50588
0.5
0.48039
0.44902
0.50588
0.48431
0.50588
0.46078
0.49412
0.5
0.47451
0.4451
0.47059
0.47451
0.5
0.50588
0.43529
0.48039
0.4902
0.47059
0.48431
0.38431
0.4
0.38431
0.37059
0.25882
0.17843
0.16863
0.4098
0.5902
0.6098
0.4098
0.32353
0.2
0.10392
0.11961
0.062745
0.017647
0.25882
0.4451
0.53922
0.60588
0.61961
0.62941
0.61961
0.62549
0.6098
0.63529
0.64118
0.66078
0.62941
0.6549
0.64118
0.68627
0.73529
0.71569
0.73137
0.78039
0.77647
0.82549
0.79608
0.78039
0.83137
0.7902
0.73137
0.71569
0.59608
0.57451
0.6098
0.53922
0.50588
0.4451
0.42549
0.4
0.33922
0.37451
0.34902
0.3902
0.41569
0.36471
0.32941
0.24902
0.21373
0.22353
0.27451
0.58039
0.7549
0.66471
0.52549
0.43922
0.31961
0.22941
0.1098
0.094118
0.21961
0.3098
0.39412
0.47059
0.47451
0.41961
0.38039
0.48039
0.5
0.51961
0.5451
0.55098
0.53922
0.52549
0.52941
0.50588
0.5451
0.53922
0.6098
0.57451
0.56078
0.52549
0.5
0.49412
0.51961
0.5
0.48039
0.4451
0.43529
0.41569
0.39412
0.37059
0.46078
0.42941
0.4
0.42549
0.43922
0.42549
0.43922
0.4451
0.40392
0.39412
0.4902
0.47451
0.47059
0.43922
0.41961
0.46078
0.43529
0.44902
0.44902
0.4549
0.47059
0.44902
0.41569
0.4549
0.49412
0.5
0.47059
0.44902
0.46471
0.4549
0.47451
0.46471
0.4549
0.42549
0.46471
0.50588
0.5098
0.47451
0.48431
0.4902
0.47451
0.47451
0.4451
0.46471
0.46471
0.47059
0.47451
0.47451
0.44902
0.4549
0.47059
0.47451
0.4902
0.49412
0.4902
0.44902
0.43922
0.48039
0.47451
0.49412
0.47451
0.47451
0.46078
0.42549
0.48431
0.50588
0.48431
0.46078
0.4549
0.47451
0.4549
0.44902
0.48039
0.47059
0.4451
0.43922
0.42549
0.46471
0.42941
0.3902
0.36471
0.38431
0.41961
0.4451
0.46078
0.46471
0.48039
0.48431
0.47451
0.4902
0.47451
0.4902
0.50588
0.52941
0.5098
0.49412
0.50588
0.51569
0.47451
0.4902
0.47451
0.4902
0.47059
0.44902
0.47451
0.48039
0.42549
0.42941
0.3902
0.25882
0.18431
0.16863
0.33922
0.58039
0.61569
0.47451
0.31373
0.21373
0.1549
0.084314
0.084314
0.078431
0.26863
0.49412
0.57451
0.59608
0.5902
0.63529
0.64118
0.65098
0.6549
0.62549
0.62941
0.6549
0.66078
0.65098
0.67059
0.6451
0.69608
0.73529
0.74118
0.73529
0.78039
0.77647
0.78039
0.78627
0.7549
0.72549
0.70588
0.67059
0.61961
0.58039
0.52941
0.47059
0.48431
0.46471
0.42941
0.38039
0.42941
0.4451
0.42549
0.4098
0.40392
0.4
0.38431
0.4
0.42941
0.4549
0.44902
0.43922
0.42549
0.43922
0.44902
0.4451
0.4451
0.38431
0.46078
0.5
0.47451
0.5
0.4902
0.47059
0.46471
0.46078
0.46078
0.42941
0.38431
0.3549
0.3451
0.3902
0.46078
0.47451
0.4902
0.49412
0.5
0.48431
0.48431
0.44902
0.4451
0.51961
0.49412
0.47451
0.49412
0.46471
0.46078
0.5
0.47451
0.44902
0.48039
0.47451
0.43529
0.47059
0.47451
0.41569
0.3451
0.3902
0.37059
0.31373
0.18824
0.14314
0.22941
0.4451
0.49412
0.41961
0.2902
0.17843
0.084314
0.052941
0.023529
0.078431
0.23922
0.4549
0.58431
0.6098
0.61569
0.59608
0.61569
0.65098
0.65098
0.62549
0.61569
0.66078
0.66471
0.6549
0.70588
0.7098
0.70588
0.73529
0.76078
0.78039
0.80588
0.78039
0.77647
0.82549
0.79608
0.76078
0.72549
0.68627
0.6549
0.61961
0.56078
0.50588
0.46471
0.43922
0.41961
0.4451
0.3902
0.36471
0.40392
0.43529
0.42549
0.42549
0.41961
0.40392
0.38039
0.4
0.43922
0.4451
0.41569
0.4451
0.44902
0.40392
0.47451
0.47059
0.46078
0.42549
0.41961
0.47451
0.48431
0.4451
0.44902
0.4549
0.41569
0.3549
0.3451
0.33529
0.35882
0.44902
0.48431
0.44902
0.46471
0.47451
0.47451
0.47059
0.4549
0.48039
0.4902
0.5
0.51961
0.48039
0.5
0.47451
0.47451
0.46078
0.46078
0.4451
0.42941
0.42549
0.47451
0.5098
0.4451
0.40392
0.4098
0.36471
0.2902
0.20392
0.11373
0.21961
0.43922
0.58039
0.5
0.3451
0.22353
0.12353
0.068627
0.017647
-0.0019608
0.12353
0.40392
0.57451
0.6098
0.63529
0.65098
0.6451
0.61961
0.62941
0.62549
0.6451
0.61569
0.65098
0.66471
0.70588
0.73137
0.73529
0.7451
0.7549
0.76078
0.7549
0.8
0.76078
0.83137
0.80588
0.82157
0.76078
0.75098
0.71569
0.6451
0.57451
0.52941
0.48431
0.51569
0.4451
0.44902
0.41961
0.4
0.40392
0.3549
0.37451
0.42941
0.42549
0.41961
0.42941
0.41961
0.43529
0.42549
0.42549
0.41961
0.42549
0.39412
0.48431
0.47451
0.48039
0.49412
0.48431
0.44902
0.47451
0.46471
0.42549
0.43922
0.41961
0.3902
0.36471
0.3549
0.39412
0.4451
0.43529
0.47451
0.46078
0.46471
0.43922
0.50588
0.51961
0.5
0.50588
0.47451
0.4549
0.46078
0.49412
0.5
0.46078
0.46471
0.48039
0.48431
0.46078
0.48431
0.47451
0.44902
0.47059
0.41961
0.34902
0.35882
0.3
0.17843
0.1549
0.3451
0.56078
0.59608
0.44902
0.33529
0.20392
0.12941
0.094118
0.052941
0.033333
0.18431
0.42549
0.5451
0.5902
0.59608
0.60588
0.61569
0.6098
0.6451
0.66078
0.61961
0.6549
0.66078
0.66471
0.6451
0.66471
0.68627
0.73529
0.74118
0.77059
0.78039
0.80588
0.82157
0.81176
0.78627
0.7549
0.74118
0.6902
0.66078
0.60588
0.58039
0.52549
0.48039
0.47451
0.4451
0.41961
0.37059
0.37451
0.38431
0.3451
0.3902
0.38039
0.41569
0.4
0.37451
0.37059
0.42549
0.41961
0.39412
0.41961
0.42549
0.3902
0.4451
0.43922
0.44902
0.4549
0.4451
0.43922
0.43529
0.42941
0.46078
0.38431
0.40392
0.4
0.39412
0.38431
0.48039
0.4902
0.46078
0.4902
0.44902
0.42941
0.5
0.52549
0.49412
0.48431
0.47451
0.46078
0.41961
0.47059
0.44902
0.41961
0.4549
0.47451
0.4902
0.46078
0.4549
0.46471
0.42941
0.38431
0.3549
0.38431
0.32353
0.23922
0.18431
0.16471
0.29412
0.49412
0.55098
0.38431
0.26471
0.19412
0.12941
0.084314
0.043137
0.017647
0.3549
0.51569
0.58431
0.61569
0.5902
0.58431
0.61569
0.62549
0.6098
0.5902
0.57059
0.66078
0.61961
0.68039
0.67059
0.68627
0.71569
0.73137
0.74118
0.7549
0.78039
0.81176
0.78627
0.82157
0.8
0.7549
0.74118
0.70588
0.6549
0.6098
0.5549
0.49412
0.43922
0.4
0.36471
0.4451
0.4098
0.35882
0.4098
0.41961
0.42549
0.40392
0.39412
0.4
0.40392
0.38431
0.42941
0.42549
0.40392
0.39412
0.4451
0.4549
0.44902
0.42549
0.4098
0.46078
0.4451
0.46078
0.4451
0.47451
0.44902
0.41961
0.33922
0.32941
0.37451
0.39412
0.44902
0.47059
0.47451
0.44902
0.4902
0.46471
0.46078
0.47451
0.5098
0.52549
0.48431
0.47451
0.49412
0.46078
0.48039
0.47451
0.47451
0.4549
0.43922
0.42549
0.46471
0.42549
0.44902
0.43922
0.38431
0.4
0.36471
0.24902
0.14902
0.11961
0.25882
0.44902
0.5098
0.37451
0.2902
0.15882
0.10392
0.084314
0.052941
0.11961
0.30392
0.49412
0.5902
0.6
0.61569
0.59608
0.6451
0.61961
0.63529
0.66078
0.63529
0.62549
0.67059
0.66471
0.67647
0.68627
0.7
0.68627
0.76078
0.78627
0.77647
0.78627
0.83529
0.85098
0.81176
0.7549
0.74118
0.6902
0.6451
0.59608
0.51961
0.5
0.43922
0.43529
0.47451
0.4451
0.41569
0.39412
0.40392
0.4098
0.40392
0.38431
0.37059
0.39412
0.41961
0.43922
0.4451
0.42941
0.4451
0.44902
0.4451
0.4549
0.44902
0.46078
0.43922
0.44902
0.43922
0.47451
0.44902
0.43922
0.41961
0.43922
0.40392
0.34902
0.33922
0.37059
0.40392
0.44902
0.4451
0.46078
0.47451
0.43529
0.48039
0.50588
0.5
0.48431
0.5
0.4902
0.48039
0.46471
0.44902
0.4451
0.4902
0.49412
0.47451
0.5
0.48039
0.48431
0.46471
0.4451
0.39412
0.37059
0.37451
0.31373
0.21961
0.16863
0.1549
0.37451
0.53529
0.53922
0.36471
0.2451
0.11961
0.078431
0.033333
0.052941
0.16863
0.37451
0.56078
0.60588
0.61961
0.62549
0.61569
0.6
0.61961
0.63529
0.62941
0.58431
0.67647
0.6902
0.66471
0.69608
0.7
0.72157
0.75098
0.76078
0.77647
0.78627
0.76667
0.7549
0.82549
0.81569
0.77059
0.72549
0.66471
0.60588
0.57451
0.52549
0.49412
0.48039
0.4451
0.40392
0.37451
0.4098
0.42549
0.4
0.41569
0.4
0.38431
0.4098
0.42549
0.41569
0.40392
0.4
0.4098
0.40392
0.44902
0.46078
0.46078
0.47059
0.44902
0.47059
0.46078
0.46471
0.42941
0.44902
0.41961
0.4098
0.41961
0.40392
0.35882
0.34902
0.37451
0.39412
0.46078
0.44902
0.47059
0.46078
0.4549
0.46471
0.47451
0.4902
0.5
0.49412
0.5
0.4902
0.44902
0.4549
0.48039
0.48431
0.47451
0.46078
0.48431
0.47451
0.4902
0.47059
0.42549
0.40392
0.36471
0.32941
0.32941
0.2549
0.16471
0.14902
0.4098
0.58039
0.58431
0.36471
0.21373
0.11373
0.11961
0.033333
-0.0019608
0.14314
0.35882
0.51569
0.57059
0.62549
0.61569
0.64118
0.62549
0.64118
0.62941
0.67059
0.66078
0.6549
0.6451
0.64118
0.73137
0.75098
0.74118
0.73529
0.78039
0.78039
0.81176
0.81176
0.82549
0.82549
0.8
0.77059
0.7098
0.64118
0.67059
0.6549
0.5902
0.52549
0.47451
0.44902
0.43529
0.40392
0.4
0.37451
0.38039
0.37451
0.4098
0.40392
0.4
0.42549
0.43529
0.41569
0.39412
0.41569
0.42549
0.43529
0.42549
0.42549
0.3902
0.47451
0.42549
0.47059
0.48431
0.46471
0.4549
0.4451
0.46471
0.42941
0.41569
0.3549
0.32353
0.36471
0.44902
0.47059
0.43529
0.4902
0.49412
0.47451
0.46078
0.50588
0.5
0.47059
0.47451
0.46471
0.5
0.51961
0.50588
0.49412
0.47451
0.46078
0.44902
0.48039
0.47451
0.4451
0.44902
0.41569
0.37451
0.4098
0.3902
0.30392
0.20392
0.15882
0.25882
0.5
0.5902
0.47451
0.33922
0.25882
0.1549
0.12353
0.062745
0.043137
0.16471
0.35882
0.5
0.56471
0.58431
0.61569
0.6
0.61961
0.61569
0.65098
0.63529
0.6451
0.61569
0.66471
0.67059
0.66471
0.68039
0.71569
0.74118
0.75098
0.78039
0.79608
0.78039
0.80588
0.81176
0.77647
0.76078
0.69608
0.67647
0.62941
0.59608
0.56078
0.5098
0.4549
0.43529
0.41569
0.38039
0.36471
0.40392
0.38039
0.33529
0.4
0.41961
0.40392
0.41961
0.40392
0.39412
0.4098
0.42549
0.42549
0.42549
0.38039
0.41569
0.42941
0.44902
0.4549
0.4098
0.46078
0.47059
0.46078
0.44902
0.41961
0.37451
0.3451
0.33529
0.38431
0.43922
0.48431
0.47451
0.46078
0.49412
0.4902
0.4902
0.47059
0.48039
0.5
0.49412
0.47451
0.4549
0.42549
0.46078
0.5
0.4902
0.47059
0.43922
0.47059
0.46078
0.47059
0.44902
0.46078
0.4
0.35882
0.3451
0.22353
0.2
0.14902
0.2549
0.46078
0.5
0.44902
0.3451
0.22353
0.13922
0.10392
0.084314
0.094118
0.21961
0.44902
0.57059
0.59608
0.5902
0.58431
0.62549
0.63529
0.61961
0.64118
0.61569
0.62549
0.61961
0.67059
0.66471
0.67647
0.66471
0.71569
0.75098
0.74118
0.80588
0.82157
0.82549
0.81569
0.78039
0.78627
0.7451
0.7098
0.6098
0.6
0.57451
0.5451
0.48039
0.4549
0.41961
0.39412
0.39412
0.38039
0.38039
0.35882
0.3451
0.4098
0.42549
0.38039
0.41961
0.43529
0.42549
0.42549
0.41961
0.41569
0.40392
0.40392
0.4098
0.4
0.4549
0.47059
0.42941
0.46078
0.44902
0.47451
0.44902
0.42549
0.40392
0.3549
0.35882
0.36471
0.42941
0.44902
0.43529
0.47451
0.4902
0.44902
0.46471
0.4902
0.47451
0.49412
0.5
0.47451
0.4549
0.43922
0.42941
0.48039
0.47059
0.47451
0.4451
0.47451
0.44902
0.47451
0.47059
0.4451
0.40392
0.36471
0.32941
0.31961
0.23333
0.1549
0.13333
0.33529
0.4902
0.51569
0.36471
0.2451
0.12941
0.062745
0.023529
0.039216
0.19412
0.42549
0.5549
0.5902
0.58431
0.59608
0.61961
0.6098
0.62549
0.63529
0.61569
0.60588
0.64118
0.63529
0.66078
0.67059
0.71569
0.72157
0.71569
0.76667
0.77059
0.78627
0.82157
0.82157
0.7902
0.7549
0.7098
0.73529
0.68039
0.62549
0.57451
0.52941
0.49412
0.4549
0.39412
0.38039
0.42549
0.40392
0.4
0.38039
0.39412
0.38039
0.41569
0.42941
0.41569
0.4
0.3902
0.41569
0.43529
0.40392
0.39412
0.44902
0.46471
0.46078
0.42549
0.47059
0.47451
0.44902
0.43529
0.4549
0.42941
0.42549
0.40392
0.3549
0.3451
0.36471
0.37059
0.42941
0.44902
0.43529
0.46078
0.4549
0.46078
0.47059
0.47451
0.4549
0.4902
0.50588
0.48039
0.5
0.49412
0.47451
0.43529
0.41569
0.5
0.4902
0.47059
0.44902
0.4549
0.46471
0.43922
0.42549
0.38039
0.32353
0.3098
0.24902
0.1549
0.21961
0.41569
0.52941
0.44902
0.32353
0.19412
0.1098
0.058824
0.023529
0.10392
0.25882
0.46078
0.57451
0.59608
0.6098
0.62549
0.61961
0.62549
0.60588
0.6
0.6451
0.65098
0.65098
0.62549
0.61569
0.7098
0.72157
0.73137
0.73137
0.7451
0.77647
0.79608
0.7902
0.78627
0.81176
0.79608
0.75098
0.66471
0.66078
0.61961
0.58039
0.52941
0.47059
0.42941
0.43529
0.42549
0.4098
0.40392
0.38039
0.38431
0.37451
0.41569
0.4451
0.4098
0.4
0.41961
0.43922
0.44902
0.41569
0.43529
0.4451
0.42941
0.42549
0.42941
0.46078
0.48039
0.47059
0.44902
0.47451
0.4549
0.41569
0.46471
0.42549
0.37451
0.33922
0.3
0.42549
0.47451
0.47059
0.42941
0.44902
0.46078
0.47451
0.49412
0.48039
0.4549
0.4902
0.48039
0.5098
0.4902
0.4549
0.47059
0.4549
0.49412
0.48039
0.47059
0.44902
0.42941
0.44902
0.47059
0.4098
0.35882
0.38431
0.35882
0.24902
0.1549
0.13333
0.32353
0.5549
0.57059
0.39412
0.27843
0.12353
0.098039
0.058824
0.0078431
0.07451
0.25882
0.48431
0.59608
0.60588
0.61569
0.58039
0.66078
0.6549
0.6451
0.6451
0.63529
0.62941
0.60588
0.68039
0.72549
0.71569
0.70588
0.7
0.77647
0.79608
0.82157
0.80588
0.81176
0.78039
0.79608
0.78627
0.77647
0.71569
0.6549
0.59608
0.5902
0.53529
0.5098
0.4451
0.41961
0.40392
0.35882
0.39412
0.41961
0.38431
0.40392
0.40392
0.38039
0.42549
0.41961
0.41569
0.41961
0.41961
0.4
0.40392
0.39412
0.41961
0.44902
0.43922
0.4451
0.44902
0.42941
0.46078
0.42941
0.42549
0.4549
0.43529
0.4451
0.32941
0.30392
0.38431
0.4098
0.41569
0.46471
0.43529
0.46471
0.47059
0.46471
0.47451
0.47451
0.4902
0.47451
0.51569
0.48039
0.44902
0.48431
0.5
0.48039
0.48431
0.46078
0.43922
0.4549
0.46078
0.43529
0.44902
0.41569
0.38039
0.38431
0.34902
0.27843
0.18824
0.15882
0.33922
0.57451
0.61569
0.44902
0.33529
0.18824
0.098039
0.1098
0.078431
0.023529
0.23922
0.42941
0.55098
0.57451
0.60588
0.59608
0.64118
0.63529
0.62549
0.63529
0.56471
0.6451
0.68627
0.68039
0.6902
0.67059
0.6902
0.72549
0.73529
0.76667
0.78627
0.7902
0.79608
0.7451
0.73529
0.81569
0.76078
0.70588
0.64118
0.60588
0.5902
0.53922
0.48431
0.43922
0.3902
0.39412
0.3902
0.38431
0.38039
0.3451
0.37451
0.3902
0.38039
0.38431
0.37451
0.3549
0.33529
0.4
0.4098
0.41569
0.37059
0.41961
0.4451
0.44902
0.42941
0.46078
0.47059
0.47451
0.43922
0.42941
0.4549
0.43529
0.37059
0.35882
0.40392
0.42941
0.46078
0.46471
0.46471
0.44902
0.46078
0.47451
0.4098
0.50588
0.52941
0.51961
0.51569
0.48431
0.47059
0.5
0.47059
0.49412
0.48039
0.47059
0.4098
0.40392
0.5
0.50588
0.47059
0.40392
0.3902
0.34902
0.2902
0.22941
0.18431
0.16863
0.33922
0.52941
0.57059
0.43922
0.3
0.17843
0.12941
0.1098
0.078431
0.11961
0.2902
0.48039
0.5451
0.58431
0.58039
0.62941
0.63529
0.6098
0.61961
0.62549
0.6098
0.61961
0.65098
0.66078
0.64118
0.66471
0.6902
0.73137
0.77647
0.78627
0.80588
0.79608
0.78039
0.7902
0.7902
0.77059
0.7098
0.67647
0.63529
0.57451
0.55098
0.50588
0.48039
0.43922
0.39412
0.3902
0.38039
0.37059
0.34902
0.3902
0.4
0.39412
0.38039
0.38039
0.38039
0.40392
0.41961
0.3902
0.4098
0.42549
0.41569
0.42941
0.46078
0.47451
0.44902
0.4549
0.43529
0.42941
0.4451
0.44902
0.42941
0.4451
0.4
0.36471
0.33922
0.3902
0.44902
0.4902
0.48039
0.47059
0.4549
0.46078
0.44902
0.47059
0.48431
0.47451
0.4902
0.50588
0.49412
0.47451
0.4549
0.43922
0.47451
0.4549
0.4902
0.47451
0.47059
0.46078
0.46471
0.43922
0.4098
0.3902
0.39412
0.3451
0.2451
0.14902
0.12353
0.32941
0.51569
0.53922
0.37059
0.24902
0.1549
0.094118
0.058824
0.04902
0.12941
0.38039
0.5451
0.59608
0.6
0.5902
0.6098
0.60588
0.64118
0.63529
0.6451
0.64118
0.6549
0.6451
0.61569
0.6902
0.72157
0.73137
0.73529
0.7549
0.7549
0.79608
0.78039
0.80588
0.82157
0.79608
0.77647
0.73529
0.66471
0.64118
0.58431
0.5451
0.5
0.4451
0.43922
0.4549
0.41569
0.4098
0.4451
0.43529
0.42549
0.41569
0.42549
0.42549
0.43922
0.39412
0.43922
0.4451
0.4
0.41961
0.43922
0.41569
0.40392
0.4
0.42549
0.42941
0.4098
0.4451
0.43529
0.41961
0.4098
0.42941
0.4098
0.38431
0.40392
0.36471
0.34902
0.33922
0.41569
0.44902
0.4451
0.44902
0.4451
0.41569
0.4549
0.47451
0.4451
0.48431
0.51569
0.5
0.5
0.48431
0.4902
0.46078
0.4549
0.44902
0.4549
0.44902
0.44902
0.41569
0.38039
0.43922
0.44902
0.41961
0.38039
0.3098
0.20392
0.12353
0.1098
0.3902
0.52549
0.44902
0.2902
0.20392
0.12941
0.1098
0.088235
0.07451
0.21373
0.41569
0.53529
0.57451
0.57059
0.60588
0.61569
0.61961
0.59608
0.58431
0.6
0.62941
0.66471
0.67059
0.65098
0.66078
0.68039
0.7
0.72549
0.7549
0.7549
0.77647
0.78627
0.78039
0.79608
0.72157
0.76078
0.7098
0.67059
0.59608
0.56078
0.52549
0.48039
0.4451
0.41961
0.4098
0.4
0.38431
0.37059
0.37451
0.32941
0.37451
0.42941
0.46471
0.43529
0.41961
0.42549
0.42941
0.42549
0.42549
0.41569
0.43529
0.43922
0.43529
0.42941
0.43529
0.3902
0.4451
0.47059
0.47451
0.42549
0.4451
0.42941
0.38039
0.32941
0.31373
0.3549
0.41569
0.42941
0.4098
0.42549
0.42941
0.47451
0.47059
0.46078
0.4549
0.5
0.5098
0.48431
0.47059
0.47451
0.43922
0.47451
0.4549
0.46078
0.4549
0.4451
0.46471
0.47451
0.4549
0.42941
0.4098
0.3902
0.33922
0.2902
0.22941
0.1549
0.19412
0.42941
0.56078
0.48431
0.32353
0.20392
0.12353
0.078431
0.029412
-0.0019608
0.13333
0.3549
0.53529
0.5902
0.6098
0.61569
0.6098
0.59608
0.63529
0.64118
0.65098
0.65098
0.66078
0.61569
0.66471
0.68627
0.71569
0.73137
0.7451
0.77059
0.77647
0.78627
0.79608
0.8
0.8
0.8
0.77059
0.73137
0.67647
0.61961
0.58431
0.52941
0.51569
0.47451
0.43922
0.42549
0.3902
0.37451
0.3902
0.4
0.3902
0.4
0.3902
0.37059
0.3902
0.40392
0.4
0.4098
0.40392
0.4
0.42549
0.42549
0.41961
0.41569
0.43922
0.43529
0.43922
0.43922
0.44902
0.41961
0.3902
0.44902
0.43529
0.38431
0.35882
0.33922
0.36471
0.41569
0.46078
0.44902
0.43922
0.44902
0.44902
0.48039
0.49412
0.47451
0.46078
0.48039
0.49412
0.46471
0.48039
0.4549
0.4451
0.48039
0.47059
0.48039
0.47059
0.44902
0.4451
0.46078
0.43922
0.37451
0.3549
0.34902
0.27451
0.17843
0.1549
0.30392
0.53529
0.60588
0.4902
0.32353
0.21373
0.13333
0.098039
0.078431
0.043137
0.17843
0.3549
0.52941
0.5902
0.6
0.58431
0.61569
0.64118
0.6451
0.62941
0.63529
0.61569
0.64118
0.65098
0.66078
0.6549
0.70588
0.71569
0.72549
0.75098
0.77059
0.79608
0.81176
0.81569
0.80588
0.78627
0.74118
0.71569
0.67059
0.60588
0.57451
0.52549
0.48431
0.4902
0.42941
0.4098
0.4
0.38431
0.38039
0.4098
0.38431
0.3902
0.38431
0.40392
0.39412
0.38039
0.39412
0.42549
0.42549
0.42549
0.41961
0.42941
0.41569
0.43529
0.42941
0.4
0.4451
0.47451
0.46471
0.47059
0.4451
0.4098
0.38431
0.3549
0.38039
0.4098
0.44902
0.46471
0.44902
0.46471
0.47059
0.49412
0.5
0.51569
0.51961
0.49412
0.48431
0.47451
0.47451
0.47451
0.46471
0.48039
0.47451
0.46078
0.47451
0.47059
0.47451
0.46078
0.44902
0.41569
0.38431
0.3549
0.35882
0.26471
0.17843
0.14314
0.29412
0.51569
0.5451
0.38431
0.32353
0.20392
0.14902
0.10392
0.094118
0.14902
0.3
0.47451
0.56078
0.5902
0.6
0.6098
0.6098
0.58431
0.61961
0.6098
0.63529
0.64118
0.63529
0.66078
0.66078
0.67647
0.6902
0.7098
0.73137
0.7549
0.77647
0.76667
0.79608
0.8
0.78039
0.7902
0.7451
0.70588
0.6451
0.58431
0.5451
0.5
0.4451
0.42549
0.40392
0.38431
0.37451
0.4098
0.40392
0.39412
0.38039
0.38431
0.38039
0.38431
0.40392
0.4098
0.41961
0.4098
0.38039
0.43922
0.42549
0.41961
0.44902
0.42941
0.41569
0.47059
0.47451
0.44902
0.41961
0.46078
0.47451
0.4098
0.35882
0.34902
0.38039
0.41569
0.47059
0.47451
0.47059
0.4451
0.4098
0.47451
0.5098
0.5098
0.48039
0.47451
0.4902
0.47451
0.47059
0.46471
0.42549
0.4549
0.47451
0.4549
0.43922
0.47451
0.48431
0.46078
0.4451
0.40392
0.38039
0.35882
0.31373
0.21961
0.11961
0.094118
0.3
0.53922
0.56078
0.36471
0.25882
0.14314
0.098039
0.039216
0.033333
0.18824
0.36471
0.51961
0.58431
0.61569
0.62549
0.62941
0.61961
0.60588
0.6098
0.60588
0.64118
0.62549
0.66078
0.68039
0.6902
0.7
0.71569
0.72549
0.72549
0.75098
0.80588
0.81176
0.82157
0.82549
0.78627
0.7451
0.71569
0.67059
0.61961
0.56078
0.51961
0.5
0.46471
0.4549
0.42941
0.40392
0.40392
0.39412
0.38039
0.36471
0.4098
0.41961
0.4
0.38039
0.43529
0.44902
0.43922
0.4451
0.42941
0.43922
0.4549
0.4451
0.4549
0.46078
0.42549
0.41961
0.46471
0.49412
0.47059
0.46471
0.4549
0.43529
0.38431
0.33922
0.32941
0.34902
0.4
0.50588
0.5
0.46471
0.46471
0.46471
0.47059
0.48431
0.49412
0.48431
0.4902
0.47451
0.50588
0.47059
0.49412
0.5
0.4902
0.47451
0.48039
0.47059
0.4902
0.48431
0.46471
0.4451
0.40392
0.36471
0.37059
0.32941
0.21373
0.14314
0.21961
0.42549
0.55098
0.47059
0.33529
0.2098
0.12353
0.07451
0.04902
0.043137
0.22353
0.4451
0.5549
0.61961
0.63529
0.61961
0.64118
0.62549
0.6098
0.60588
0.64118
0.64118
0.64118
0.6549
0.68039
0.67059
0.7098
0.73137
0.74118
0.77059
0.7902
0.8
0.7902
0.81176
0.7902
0.76078
0.7098
0.6902
0.7098
0.62549
0.56078
0.50588
0.49412
0.44902
0.4098
0.42549
0.40392
0.40392
0.40392
0.3902
0.4
0.41961
0.41961
0.41961
0.4098
0.3902
0.42549
0.42549
0.4451
0.4098
0.40392
0.46078
0.4451
0.47451
0.48431
0.44902
0.46471
0.47451
0.4549
0.43922
0.42549
0.4
0.35882
0.3451
0.32353
0.36471
0.41961
0.4549
0.4549
0.4549
0.46078
0.48039
0.48039
0.4902
0.5
0.44902
0.46471
0.51569
0.48039
0.49412
0.48039
0.4902
0.48039
0.48039
0.47451
0.4451
0.47451
0.47059
0.47451
0.42941
0.4
0.4
0.37059
0.30392
0.20392
0.12941
0.22353
0.46078
0.58431
0.50588
0.3098
0.2451
0.16471
0.11373
0.058824
0.033333
0.14314
0.3549
0.52549
0.58431
0.5902
0.63529
0.62941
0.6451
0.67059
0.66078
0.6549
0.61961
0.65098
0.68039
0.66471
0.68039
0.7
0.71569
0.70588
0.78627
0.78039
0.79608
0.83137
0.84118
0.81569
0.8
0.76078
0.72549
0.67059
0.61569
0.58431
0.5549
0.5
0.5
0.44902
0.43529
0.41961
0.3902
0.34902
0.3451
0.43529
0.41569
0.4098
0.4
0.38431
0.39412
0.41569
0.41961
0.4
0.3902
0.38431
0.4549
0.43922
0.42549
0.44902
0.43922
0.42941
0.44902
0.4549
0.41569
0.46078
0.42941
0.38431
0.3902
0.35882
0.40392
0.48039
0.48431
0.46078
0.43529
0.46471
0.5
0.49412
0.49412
0.47451
0.5
0.5098
0.49412
0.47451
0.44902
0.48039
0.47059
0.4451
0.5
0.48431
0.47451
0.44902
0.44902
0.4549
0.3902
0.4
0.37059
0.31961
0.21961
0.17843
0.16863
0.39412
0.57451
0.6098
0.43529
0.27843
0.2
0.14902
0.1098
0.039216
0.023529
0.27843
0.48039
0.58039
0.5549
0.61961
0.6451
0.64118
0.63529
0.62549
0.62549
0.60588
0.6
0.6451
0.66471
0.70588
0.71569
0.69608
0.7451
0.73529
0.77647
0.78627
0.77059
0.7549
0.83529
0.80588
0.76667
0.74118
0.68039
0.64118
0.61569
0.56078
0.53529
0.46078
0.43529
0.42549
0.41569
0.40392
0.38431
0.35882
0.41961
0.40392
0.39412
0.40392
0.37451
0.40392
0.4098
0.37451
0.3549
0.41961
0.43529
0.42549
0.42549
0.43529
0.42941
0.41569
0.40392
0.43529
0.43922
0.41569
0.42941
0.34902
0.33529
0.38039
0.40392
0.42941
0.48039
0.49412
0.46471
0.4451
0.47059
0.4451
0.48039
0.5
0.5098
0.5
0.46078
0.4451
0.48431
0.47059
0.46078
0.46078
0.4549
0.47451
0.47059
0.46471
0.47451
0.46078
0.4
0.3902
0.4
0.37059
0.31961
0.21373
0.14902
0.13333
0.36471
0.51569
0.52549
0.33529
0.2098
0.12941
0.094118
0.043137
0.078431
0.17843
0.4098
0.5549
0.6
0.59608
0.61569
0.62549
0.6098
0.62941
0.62549
0.64118
0.64118
0.62549
0.5902
0.68627
0.68627
0.71569
0.71569
0.73529
0.75098
0.77647
0.80588
0.81176
0.8
0.76667
0.72549
0.78039
0.74118
0.67647
0.6098
0.58431
0.53922
0.4902
0.44902
0.42941
0.39412
0.42549
0.41961
0.40392
0.4
0.38039
0.41569
0.42941
0.4
0.3902
0.41569
0.3902
0.43529
0.43922
0.40392
0.44902
0.4549
0.46078
0.46078
0.4098
0.4549
0.38039
0.47451
0.52549
0.49412
0.46078
0.41569
0.3549
0.35882
0.33922
0.4
0.4
0.48039
0.49412
0.47059
0.4902
0.4451
0.47059
0.4902
0.47059
0.46078
0.5
0.47451
0.47059
0.44902
0.43529
0.48431
0.4902
0.4549
0.47059
0.43529
0.4549
0.5
0.46471
0.4098
0.37059
0.3451
0.36471
0.2451
0.1549
0.11961
0.34902
0.5098
0.51569
0.38431
0.26471
0.16471
0.1098
0.058824
0.04902
0.17843
0.3451
0.4549
0.57059
0.61961
0.6549
0.67059
0.6549
0.64118
0.62549
0.64118
0.64118
0.64118
0.60588
0.58431
0.70588
0.72157
0.76078
0.76667
0.78039
0.78627
0.78627
0.77059
0.7549
0.8
0.82157
0.77059
0.72157
0.67647
0.64118
0.57059
0.53922
0.47451
0.42549
0.43922
0.44902
0.42549
0.4
0.41569
0.43922
0.42941
0.42549
0.4098
0.41569
0.38431
0.38039
0.4098
0.4098
0.44902
0.4549
0.41569
0.47059
0.47451
0.46078
0.46471
0.43529
0.44902
0.47059
0.44902
0.46078
0.47059
0.41961
0.4
0.38431
0.38039
0.37059
0.43529
0.47059
0.48039
0.4451
0.42549
0.4451
0.47451
0.49412
0.49412
0.47059
0.48039
0.47059
0.53529
0.51569
0.4902
0.47451
0.47451
0.47451
0.46078
0.47059
0.43922
0.42549
0.4
0.47451
0.48431
0.42941
0.41961
0.37059
0.26471
0.12941
0.12353
0.31961
0.5098
0.53529
0.4
0.2549
0.14314
0.11961
0.078431
0.062745
0.20392
0.35882
0.52549
0.58431
0.57451
0.61569
0.63529
0.60588
0.64118
0.62941
0.6549
0.66078
0.64118
0.66078
0.66471
0.66078
0.68627
0.7098
0.7549
0.76667
0.77059
0.7549
0.80588
0.8451
0.82549
0.77059
0.7549
0.75098
0.7
0.6451
0.57451
0.52549
0.46078
0.47451
0.48431
0.47059
0.4451
0.4
0.38039
0.40392
0.41569
0.40392
0.41569
0.38431
0.36471
0.44902
0.46078
0.44902
0.43529
0.4098
0.40392
0.44902
0.46078
0.43529
0.41961
0.46471
0.4902
0.49412
0.4549
0.4451
0.41961
0.43529
0.4451
0.3902
0.3549
0.3451
0.3451
0.4
0.42941
0.46471
0.43922
0.47451
0.44902
0.49412
0.48431
0.51569
0.49412
0.47451
0.46471
0.4549
0.48431
0.5098
0.5
0.47451
0.44902
0.49412
0.4451
0.48431
0.5
0.47059
0.4451
0.41961
0.3902
0.3451
0.3
0.24902
0.18431
0.22353
0.4098
0.6
0.6098
0.39412
0.24902
0.13922
0.04902
0.07451
0.068627
0.12941
0.33529
0.50588
0.60588
0.6098
0.63529
0.61961
0.59608
0.56471
0.67059
0.68039
0.67647
0.68039
0.7
0.67647
0.69608
0.69608
0.66471
0.7549
0.77647
0.8
0.81176
0.83137
0.7902
0.82549
0.83137
0.76078
0.7549
0.69608
0.62941
0.62549
0.57059
0.49412
0.43922
0.4549
0.4451
0.41961
0.3902
0.33529
0.38431
0.42941
0.43529
0.42549
0.38431
0.40392
0.40392
0.38431
0.37059
0.3549
0.4098
0.46471
0.42941
0.47059
0.47451
0.4451
0.42941
0.4451
0.44902
0.40392
0.42549
0.39412
0.4098
0.38039
0.4
0.3902
0.42941
0.47059
0.47451
0.44902
0.42941
0.47059
0.48431
0.50588
0.47451
0.5
0.50588
0.46078
0.4549
0.47059
0.48431
0.47451
0.46078
0.44902
0.48431
0.4902
0.4549
0.46471
0.47059
0.43529
0.38431
0.34902
0.32353
0.3098
0.26863
0.15882
0.21373
0.4451
0.62549
0.56078
0.40392
0.29412
0.18824
0.12353
0.068627
0.052941
0.13922
0.32353
0.47059
0.58039
0.5902
0.61569
0.60588
0.5902
0.58431
0.63529
0.64118
0.6549
0.62941
0.61961
0.68039
0.67647
0.68627
0.68039
0.6902
0.75098
0.79608
0.79608
0.8
0.78627
0.72549
0.79608
0.78627
0.75098
0.6902
0.63529
0.53922
0.51961
0.53922
0.48039
0.42941
0.38431
0.36471
0.35882
0.42549
0.40392
0.3902
0.37451
0.38431
0.37451
0.4098
0.4
0.38431
0.38039
0.37451
0.4098
0.4451
0.37451
0.36471
0.47451
0.46078
0.4451
0.42941
0.3902
0.42941
0.46078
0.41569
0.39412
0.37059
0.3549
0.40392
0.4549
0.47451
0.44902
0.47451
0.44902
0.48039
0.48039
0.48431
0.46471
0.4902
0.47451
0.46078
0.44902
0.47059
0.4902
0.5
0.43922
0.42549
0.46078
0.48431
0.49412
0.43922
0.47059
0.47451
0.42549
0.3902
0.3451
0.29412
0.21961
0.13922
0.17843
0.38431
0.4902
0.4549
0.35882
0.24902
0.12941
0.084314
0.1098
0.062745
0.17451
0.40392
0.52549
0.5451
0.58039
0.61961
0.6
0.64118
0.6
0.61961
0.58431
0.6451
0.6549
0.64118
0.6451
0.61961
0.65098
0.69608
0.73529
0.75098
0.76667
0.73137
0.78039
0.83529
0.80588
0.75098
0.75098
0.67647
0.66471
0.61961
0.57059
0.5098
0.4451
0.44902
0.4
0.44902
0.40392
0.41961
0.38039
0.38431
0.38431
0.33529
0.38431
0.42941
0.41961
0.38431
0.38039
0.44902
0.44902
0.43529
0.40392
0.38039
0.4098
0.4549
0.46078
0.42941
0.42549
0.49412
0.46078
0.44902
0.4451
0.40392
0.35882
0.31961
0.27451
0.34902
0.47059
0.5
0.4549
0.43922
0.48039
0.46078
0.44902
0.46471
0.4549
0.42941
0.47451
0.5
0.47451
0.48039
0.50588
0.4549
0.47451
0.48039
0.46471
0.42941
0.44902
0.4451
0.39412
0.4451
0.4098
0.38039
0.37451
0.31373
0.19412
0.068627
0.18824
0.4549
0.53922
0.42941
0.27843
0.19412
0.1549
0.1098
0.043137
0.10392
0.26471
0.43922
0.53529
0.57059
0.56471
0.57451
0.63529
0.60588
0.5902
0.65098
0.66078
0.6451
0.63529
0.61569
0.63529
0.6549
0.68627
0.72549
0.7
0.77647
0.80588
0.79608
0.80588
0.79608
0.7549
0.69608
0.68039
0.72549
0.67647
0.5902
0.55098
0.56078
0.49412
0.42549
0.38431
0.42549
0.4098
0.37451
0.37059
0.41569
0.4
0.37059
0.3451
0.42549
0.43922
