0.85468
0.86453
0.86946
0.87931
0.88424
0.89409
0.89901
0.91379
0.92611
0.94089
0.95567
0.97537
0.99507
1.0148
1.0345
1.0493
1.0591
1.0591
1.0542
1.0394
1.0099
0.9803
0.94581
0.90887
0.86946
0.83005
0.79557
0.76601
0.74384
0.73399
0.72414
0.71921
0.71921
0.71921
0.71921
0.72906
0.72906
0.73399
0.73892
0.73892
0.74384
0.74384
0.73892
0.72906
0.72414
0.72414
0.71921
0.71429
0.71429
0.70936
0.70443
0.70443
0.70443
0.70936
0.70936
0.70936
0.71429
0.70936
0.70936
0.70936
0.71429
0.71921
0.71921
0.71921
0.72414
0.72414
0.72906
0.74384
0.77586
0.79557
0.81034
0.8202
0.82512
0.78571
0.74384
0.72906
0.73399
0.74384
0.73892
0.72414
0.71429
0.69951
0.69951
0.70443
0.70936
0.71429
0.71429
0.71429
0.71429
0.71921
0.72414
0.75616
0.87438
1.1404
1.3251
1.1601
0.69458
0.21921
-0.024631
-0.059113
0.039409
0.20443
0.3399
0.42611
0.49507
0.59113
0.70443
0.80049
0.84483
0.85961
0.86946
0.87438
0.87931
0.88916
0.89409
0.90394
0.91379
0.92611
0.94089
0.95567
0.97537
0.99507
1.0099
1.0296
1.0493
1.064
1.069
1.064
1.0493
1.0296
1
0.96552
0.93103
0.88916
0.85468
0.8202
0.78571
0.76108
0.73892
0.72414
0.71921
0.71921
0.71921
0.71921
0.71921
0.72414
0.72414
0.72906
0.72906
0.73892
0.73399
0.72906
0.72414
0.71921
0.71921
0.71429
0.70936
0.70443
0.69951
0.69951
0.69951
0.69951
0.69951
0.69951
0.69951
0.69951
0.69951
0.69951
0.69951
0.69951
0.69951
0.69951
0.69951
0.69951
0.69951
0.70936
0.72906
0.76108
0.78079
0.79064
0.80049
0.78571
0.74384
0.70936
0.70443
0.71921
0.72414
0.71429
0.70443
0.68966
0.68473
0.68473
0.68473
0.69458
0.69458
0.69951
0.69951
0.70443
0.70443
0.71429
0.77094
0.95074
1.2192
1.2906
0.97537
0.49015
0.11576
-0.024631
-0.029557
0.12562
0.28079
0.38916
0.45567
0.52956
0.62562
0.73892
0.81527
0.84975
0.85961
0.87438
0.87931
0.88424
0.88916
0.89901
0.90394
0.91872
0.93596
0.94581
0.96552
0.98522
1.0049
1.0296
1.0493
1.064
1.069
1.0739
1.0739
1.0542
1.0296
1
0.96552
0.93103
0.88424
0.84483
0.80542
0.77586
0.74877
0.73399
0.72414
0.72414
0.71921
0.71921
0.71921
0.72414
0.72906
0.73399
0.73892
0.73892
0.74384
0.74384
0.73892
0.73399
0.72906
0.72414
0.71921
0.71429
0.71429
0.70443
0.70443
0.70443
0.70443
0.70443
0.69951
0.69951
0.70443
0.70443
0.70443
0.70443
0.70443
0.71429
0.71429
0.71429
0.71921
0.71921
0.71921
0.72906
0.75616
0.78079
0.80049
0.81034
0.81527
0.78571
0.73892
0.71429
0.71921
0.72906
0.72906
0.71921
0.70443
0.69458
0.69458
0.69458
0.69951
0.69951
0.69951
0.70443
0.70936
0.71429
0.71429
0.73399
0.83005
1.069
1.2906
1.2044
0.80049
0.32512
0.034483
-0.024631
0.044335
0.18966
0.32512
0.41379
0.47537
0.55911
0.67488
0.78079
0.83498
0.85961
0.87438
0.88916
0.89409
0.89901
0.90394
0.91379
0.92611
0.94089
0.95567
0.97044
0.98522
1.0049
1.0296
1.0493
1.0739
1.0911
1.0961
1.0961
1.0788
1.064
1.0345
1
0.96059
0.91872
0.87438
0.83498
0.80049
0.76601
0.74384
0.73399
0.72414
0.72414
0.71921
0.71921
0.71921
0.72414
0.72906
0.73399
0.73892
0.73892
0.73892
0.73892
0.72906
0.72414
0.71921
0.71921
0.71429
0.70443
0.69951
0.69951
0.69951
0.69951
0.69458
0.69458
0.69458
0.69458
0.69458
0.69458
0.69458
0.69458
0.69458
0.69458
0.68966
0.69458
0.69458
0.69951
0.71429
0.73892
0.76601
0.78079
0.79557
0.79064
0.75616
0.71429
0.69951
0.70936
0.71921
0.71429
0.70443
0.69458
0.6798
0.6798
0.6798
0.68473
0.68473
0.68473
0.68966
0.69458
0.69951
0.70443
0.73892
0.87931
1.1502
1.3054
1.1108
0.64039
0.18473
-0.034483
-0.064039
0.049261
0.21429
0.3399
0.42611
0.49015
0.59113
0.70936
0.79557
0.83498
0.84975
0.85961
0.86946
0.87931
0.88424
0.89409
0.89901
0.91379
0.93103
0.94089
0.96059
0.9803
1
1.0246
1.0493
1.064
1.0788
1.0788
1.0788
1.064
1.0443
1.0099
0.97537
0.93596
0.89409
0.84975
0.81034
0.78079
0.74877
0.72906
0.71921
0.71429
0.71429
0.70936
0.70936
0.70936
0.71429
0.71921
0.72414
0.72414
0.72906
0.72414
0.72414
0.71921
0.71429
0.70443
0.69951
0.69458
0.68966
0.68473
0.68473
0.68473
0.68473
0.68473
0.68473
0.68473
0.68473
0.68473
0.68473
0.68966
0.68966
0.69458
0.69458
0.69458
0.69951
0.69951
0.70443
0.72414
0.74877
0.76601
0.78079
0.78571
0.76601
0.72906
0.69951
0.69458
0.70443
0.71429
0.69951
0.68966
0.67488
0.67488
0.67488
0.6798
0.68473
0.68473
0.68966
0.69458
0.69458
0.69458
0.70936
0.77586
0.96552
1.2241
1.2808
0.93596
0.45567
0.096059
-0.024631
-0.029557
0.13547
0.28079
0.38424
0.45567
0.52956
0.63547
0.73399
0.81034
0.83498
0.85468
0.85961
0.87438
0.87931
0.88916
0.89409
0.90394
0.91379
0.93596
0.95074
0.96552
0.98522
1.0049
1.0246
1.0493
1.064
1.0788
1.0788
1.069
1.0493
1.0246
1
0.96059
0.91872
0.87438
0.8399
0.80542
0.77094
0.74877
0.73399
0.72414
0.72414
0.71921
0.71921
0.71921
0.72414
0.72414
0.72906
0.73399
0.73892
0.74384
0.74384
0.73892
0.73892
0.72906
0.72414
0.71921
0.71429
0.71429
0.71429
0.70443
0.70443
0.70443
0.70443
0.70443
0.70443
0.70443
0.70936
0.70443
0.70443
0.70936
0.71429
0.71429
0.71429
0.71429
0.72414
0.74877
0.77586
0.79064
0.80542
0.81527
0.80049
0.75616
0.72414
0.71921
0.73399
0.73892
0.72414
0.71429
0.70443
0.70443
0.70443
0.70443
0.71429
0.71429
0.71429
0.71921
0.71921
0.72414
0.73892
0.80049
1
1.2709
1.335
0.97044
0.46059
0.078818
-0.054187
-0.024631
0.11576
0.27094
0.38424
0.45567
0.53448
0.65025
0.76601
0.83498
0.86946
0.88424
0.89409
0.89901
0.90394
0.91379
0.92611
0.93596
0.94089
0.95567
0.97044
0.98522
1.0099
1.0296
1.0591
1.0739
1.0911
1.101
1.1059
1.0961
1.0739
1.0443
1.0099
0.97044
0.92611
0.87931
0.83498
0.80049
0.76601
0.74384
0.72414
0.71921
0.70936
0.70443
0.70443
0.70443
0.70443
0.71429
0.71921
0.71921
0.72414
0.72414
0.71921
0.71921
0.71429
0.70936
0.70443
0.69951
0.69951
0.69458
0.68966
0.68966
0.68473
0.68473
0.68473
0.68473
0.68473
0.68473
0.68473
0.68473
0.68473
0.68473
0.68966
0.68966
0.69458
0.69458
0.69458
0.70443
0.72906
0.76108
0.77586
0.78571
0.79064
0.76601
0.72414
0.69458
0.69458
0.70443
0.70936
0.69951
0.68966
0.67488
0.67488
0.67488
0.6798
0.6798
0.68473
0.68473
0.68966
0.69458
0.69458
0.71429
0.80049
1.0246
1.266
1.2956
0.85468
0.35961
0.024631
-0.068966
-0.014778
0.13547
0.28571
0.38424
0.45567
0.53448
0.65025
0.75616
0.81527
0.8399
0.85468
0.86453
0.87438
0.87931
0.88916
0.89901
0.90887
0.91872
0.93596
0.95074
0.97044
0.99507
1.0197
1.0394
1.064
1.0788
1.0911
1.0961
1.0788
1.0591
1.0296
1
0.96059
0.91872
0.87931
0.83498
0.80049
0.76601
0.74384
0.72906
0.72414
0.71921
0.71921
0.71429
0.71921
0.71921
0.72414
0.72414
0.72906
0.73399
0.73892
0.73892
0.72906
0.72414
0.71921
0.71921
0.71429
0.71429
0.70936
0.70443
0.70443
0.70443
0.70443
0.70443
0.70443
0.70443
0.70936
0.70936
0.70936
0.71429
0.71921
0.71921
0.71921
0.71921
0.72414
0.72414
0.72906
0.73399
0.75616
0.78079
0.80049
0.81527
0.82512
0.83005
0.78571
0.74384
0.73399
0.74384
0.74877
0.74384
0.72906
0.71921
0.71429
0.71429
0.71921
0.71921
0.71921
0.71921
0.71921
0.72414
0.72906
0.74384
0.79064
0.95567
1.2291
1.3251
1.0493
0.55419
0.15517
-0.0049261
-0.014778
0.12069
0.27094
0.38424
0.46552
0.53448
0.63547
0.74384
0.82512
0.86946
0.88424
0.89901
0.90887
0.91872
0.91872
0.93103
0.94089
0.95074
0.96552
0.9803
1
1.0246
1.0443
1.069
1.0911
1.1108
1.1207
1.1256
1.1207
1.1059
1.0739
1.0443
1.0099
0.96552
0.92611
0.88424
0.84483
0.81034
0.79064
0.77586
0.76108
0.74877
0.74384
0.74384
0.74384
0.74877
0.75616
0.75616
0.76108
0.76601
0.76601
0.76601
0.76108
0.75616
0.74384
0.73892
0.73399
0.72906
0.72414
0.71921
0.71921
0.71429
0.71429
0.70936
0.70936
0.71429
0.71429
0.70936
0.70443
0.70443
0.70443
0.70443
0.70443
0.70443
0.70443
0.70443
0.69951
0.70443
0.71921
0.74384
0.76601
0.78079
0.79064
0.78571
0.74877
0.70936
0.69458
0.69951
0.70443
0.70936
0.69951
0.6798
0.66995
0.66502
0.66995
0.67488
0.67488
0.6798
0.68473
0.68473
0.68966
0.69458
0.72906
0.87931
1.1552
1.2956
1.0911
0.60591
0.14532
-0.068966
-0.096059
0.029557
0.19458
0.3202
0.40394
0.47537
0.58621
0.70443
0.78571
0.8202
0.83498
0.84975
0.85961
0.86946
0.87931
0.88424
0.89409
0.90394
0.91872
0.94089
0.95567
0.9803
1.0049
1.0296
1.0493
1.069
1.0837
1.0911
1.0837
1.069
1.0443
1.0099
0.97537
0.93103
0.88916
0.84975
0.81034
0.77094
0.73892
0.72414
0.71429
0.70936
0.70443
0.69951
0.70443
0.70443
0.70443
0.71429
0.71429
0.71921
0.71921
0.71921
0.71921
0.71921
0.71429
0.71429
0.70443
0.69951
0.69951
0.69458
0.69458
0.69458
0.69458
0.69458
0.68966
0.68966
0.69458
0.69458
0.69458
0.69458
0.69458
0.69458
0.69458
0.69458
0.69458
0.69458
0.69951
0.69951
0.69951
0.71921
0.74877
0.76601
0.78079
0.78571
0.76601
0.72414
0.69951
0.69951
0.71429
0.71429
0.70443
0.69458
0.68473
0.6798
0.6798
0.68473
0.68966
0.69458
0.69458
0.69458
0.69951
0.70443
0.71921
0.81034
1.0493
1.2857
1.3005
0.82512
0.34975
0.054187
-0.019704
0.044335
0.18473
0.32512
0.42118
0.4803
0.55419
0.6601
0.76601
0.83005
0.84975
0.86453
0.87438
0.87931
0.88916
0.89901
0.91379
0.92611
0.93596
0.95074
0.97537
1
1.0197
1.0443
1.064
1.0837
1.1059
1.1207
1.1256
1.1207
1.0961
1.064
1.0246
0.98522
0.94581
0.90394
0.85961
0.82512
0.79064
0.77586
0.76601
0.75616
0.74384
0.74384
0.73892
0.74384
0.74877
0.75616
0.76108
0.76108
0.76108
0.76108
0.76108
0.76108
0.74877
0.74384
0.73399
0.72414
0.72414
0.71429
0.70936
0.70936
0.70936
0.71429
0.70936
0.69951
0.69951
0.69951
0.69951
0.69951
0.69951
0.70936
0.73399
0.75616
0.76601
0.77586
0.79064
0.77094
0.72906
0.69458
0.6798
0.68473
0.69458
0.69951
0.68473
0.67488
0.66502
0.66502
0.67488
0.6798
0.68473
0.68473
0.68473
0.68473
0.68473
0.69951
0.77586
1
1.266
1.3054
0.85961
0.3399
-0.0049261
-0.10099
-0.044335
0.10591
0.25616
0.35468
0.42118
0.50493
0.62562
0.72414
0.79064
0.81527
0.83005
0.84483
0.85468
0.86453
0.87438
0.88916
0.90394
0.91872
0.93596
0.95074
0.97537
1.0099
1.0394
1.064
1.0911
1.1059
1.1108
1.1158
1.101
1.0739
1.0345
0.99507
0.95567
0.90887
0.85961
0.81527
0.77586
0.74384
0.72906
0.71429
0.70443
0.69951
0.69458
0.68966
0.69458
0.69951
0.69951
0.69458
0.69458
0.69951
0.68966
0.68473
0.68473
0.68473
0.6798
0.6798
0.67488
0.67488
0.6798
0.67488
0.67488
0.67488
0.67488
0.67488
0.6798
0.68473
0.68966
0.69458
0.68966
0.70443
0.71429
0.71921
0.71921
0.71921
0.72414
0.71921
0.71921
0.71921
0.71921
0.71921
0.71921
0.72906
0.72906
0.71921
0.71429
0.71429
0.72414
0.72906
0.71429
0.70443
0.68966
0.6798
0.66995
0.67488
0.68473
0.69458
0.69458
0.69458
0.69458
0.70936
0.80049
1.0345
1.266
1.2759
0.81527
0.3399
0.044335
-0.024631
0.029557
0.17488
0.31527
0.41379
0.4803
0.56404
0.6798
0.78571
0.84975
0.87438
0.89409
0.90394
0.91379
0.91872
0.92611
0.93596
0.94089
0.95567
0.97044
0.98522
1.0049
1.0296
1.0542
1.0837
1.1108
1.1256
1.1305
1.1355
1.1256
1.101
1.064
1.0345
0.99015
0.94581
0.89901
0.85961
0.8202
0.78571
0.76601
0.74877
0.74877
0.74384
0.73892
0.73399
0.72414
0.72414
0.72906
0.74384
0.74877
0.74877
0.74877
0.74877
0.75616
0.74877
0.74384
0.73892
0.73399
0.72906
0.72414
0.72414
0.71921
0.71921
0.72414
0.72414
0.72414
0.72414
0.72414
0.72414
0.72414
0.72414
0.72414
0.71921
0.71921
0.71921
0.72414
0.72414
0.72414
0.72414
0.71921
0.71429
0.71429
0.71921
0.71429
0.71429
0.71429
0.71921
0.71429
0.70936
0.70936
0.71921
0.73399
0.76601
0.78571
0.80049
0.80542
0.77094
0.72414
0.69951
0.70443
0.71921
0.71921
0.71429
0.69951
0.6798
0.6798
0.6798
0.6798
0.68473
0.6798
0.6798
0.68966
0.68966
0.69458
0.73892
0.89409
1.1798
1.3399
1.1552
0.66995
0.18473
-0.059113
-0.091133
0.024631
0.19458
0.31527
0.39901
0.47044
0.57389
0.69458
0.77586
0.81034
0.83005
0.84483
0.85468
0.85961
0.86946
0.87931
0.88916
0.89901
0.90887
0.93103
0.95074
0.97537
0.99507
1.0197
1.0443
1.064
1.0788
1.0837
1.0788
1.0739
1.0542
1.0246
0.98522
0.94089
0.90394
0.86453
0.82512
0.79064
0.76108
0.73892
0.71921
0.70936
0.70443
0.70443
0.70443
0.70443
0.69951
0.70443
0.71429
0.71921
0.71921
0.72414
0.72906
0.72906
0.72414
0.71921
0.71429
0.71429
0.70443
0.69951
0.69458
0.68473
0.68473
0.68473
0.69458
0.68966
0.68473
0.68473
0.68966
0.69458
0.69458
0.69458
0.69458
0.69458
0.69458
0.69458
0.69458
0.68966
0.69951
0.71429
0.73892
0.75616
0.77586
0.78571
0.75616
0.71429
0.69458
0.69458
0.70936
0.70443
0.69458
0.68473
0.68473
0.6798
0.67488
0.67488
0.6798
0.68473
0.68966
0.69458
0.69458
0.69458
0.72906
0.84483
1.1108
1.3005
1.1552
0.70936
0.24384
0
-0.039409
0.044335
0.19951
0.33005
0.42118
0.49015
0.59113
0.70443
0.80049
0.84975
0.86946
0.87931
0.88916
0.89409
0.90394
0.91379
0.91872
0.93596
0.94089
0.95567
0.97537
1
1.0246
1.0493
1.0739
1.101
1.1158
1.1256
1.1256
1.1158
1.0961
1.064
1.0296
0.99015
0.94089
0.89409
0.85468
0.8202
0.79064
0.76601
0.74384
0.73892
0.73892
0.73892
0.73399
0.72906
0.72906
0.74384
0.75616
0.76108
0.76108
0.76108
0.76108
0.75616
0.74877
0.74877
0.74877
0.74384
0.72906
0.72414
0.72414
0.71921
0.71921
0.71921
0.71921
0.71921
0.71921
0.71921
0.71921
0.71921
0.71921
0.71429
0.71429
0.72414
0.72906
0.72414
0.71921
0.73399
0.76108
0.78571
0.80049
0.81034
0.80049
0.76601
0.72414
0.71429
0.71921
0.72414
0.72414
0.70936
0.69458
0.6798
0.6798
0.6798
0.68473
0.68966
0.68966
0.69458
0.69951
0.69951
0.70936
0.74877
0.89409
1.1847
1.3498
1.1404
0.64039
0.16502
-0.059113
-0.091133
0.039409
0.19951
0.3202
0.40394
0.47537
0.58621
0.70443
0.78571
0.82512
0.8399
0.84975
0.85961
0.86946
0.87931
0.88424
0.88916
0.89901
0.91872
0.94089
0.96552
0.98522
1.0049
1.0296
1.0591
1.0788
1.0911
1.0961
1.0911
1.0739
1.0443
1.0099
0.97044
0.93103
0.88424
0.83498
0.79064
0.76108
0.73399
0.72414
0.71429
0.70443
0.69951
0.69458
0.69458
0.69951
0.69951
0.70443
0.70936
0.71429
0.71429
0.71429
0.71429
0.70443
0.69951
0.69951
0.69951
0.69458
0.68473
0.6798
0.6798
0.6798
0.6798
0.6798
0.68473
0.6798
0.6798
0.6798
0.6798
0.6798
0.68473
0.68473
0.68473
0.68473
0.68473
0.68473
0.68473
0.69951
0.71921
0.74384
0.76108
0.77094
0.77586
0.74877
0.70936
0.68473
0.68473
0.69951
0.69951
0.68473
0.6798
0.67488
0.67488
0.67488
0.6798
0.6798
0.68473
0.68473
0.68966
0.68473
0.69458
0.72414
0.83498
1.0911
1.2857
1.1552
0.72414
0.25616
-0.0049261
-0.059113
0.024631
0.1798
0.3202
0.40887
0.47537
0.56404
0.6798
0.78079
0.83005
0.84975
0.86453
0.87438
0.87931
0.88916
0.89409
0.90394
0.91872
0.93596
0.94581
0.96552
0.99015
1.0197
1.0443
1.069
1.0911
1.1108
1.1256
1.1256
1.1108
1.0788
1.0493
1.0099
0.97537
0.93103
0.88424
0.8399
0.80542
0.78079
0.76108
0.74384
0.73399
0.72906
0.72906
0.72906
0.72906
0.72906
0.73399
0.73399
0.73892
0.73892
0.73892
0.74384
0.74384
0.74384
0.73892
0.73892
0.72906
0.72414
0.72414
0.72414
0.72414
0.72414
0.72414
0.71921
0.71921
0.72414
0.72906
0.72414
0.72414
0.72906
0.72906
0.72906
0.72906
0.72906
0.72906
0.73399
0.73399
0.72906
0.74384
0.77586
0.80049
0.81034
0.8202
0.82512
0.79557
0.74877
0.72414
0.72906
0.74384
0.73892
0.72414
0.70936
0.70443
0.70443
0.70936
0.70443
0.70443
0.70443
0.70936
0.71429
0.71921
0.72414
0.75616
0.89409
1.1798
1.3547
1.165
0.66502
0.1798
-0.049261
-0.083744
0.034483
0.19951
0.33005
0.41379
0.49015
0.58621
0.70443
0.79557
0.83498
0.85468
0.86453
0.87438
0.88424
0.89409
0.89409
0.89409
0.90394
0.91379
0.93103
0.94581
0.97537
1
1.0246
1.0493
1.069
1.0788
1.0837
1.0788
1.069
1.0443
1.0099
0.96552
0.93103
0.88424
0.8399
0.80049
0.76108
0.72906
0.71429
0.70443
0.69458
0.69458
0.69458
0.69458
0.69458
0.68966
0.69458
0.69951
0.70443
0.70443
0.70443
0.70936
0.70443
0.70443
0.70443
0.69951
0.69458
0.68473
0.68473
0.68473
0.6798
0.67488
0.67488
0.67488
0.6798
0.68473
0.6798
0.6798
0.67488
0.6798
0.6798
0.68473
0.68966
0.68473
0.68473
0.68966
0.69458
0.68966
0.69951
0.71429
0.74384
0.76601
0.78079
0.79064
0.77586
0.72906
0.68966
0.68473
0.69951
0.70936
0.69951
0.69458
0.67488
0.66502
0.66502
0.67488
0.67488
0.67488
0.67488
0.6798
0.68473
0.68966
0.70443
0.79064
1.0246
1.2759
1.3054
0.8399
0.3399
0.014778
-0.073892
-0.019704
0.12562
0.27586
0.37931
0.45074
0.52956
0.64532
0.74877
0.81527
0.83498
0.85468
0.85961
0.86946
0.87931
0.88424
0.89409
0.90394
0.91872
0.93596
0.94581
0.96552
0.99507
1.0197
1.0493
1.0739
1.0961
1.1108
1.1108
1.101
1.0788
1.0493
1.0099
0.97044
0.92611
0.87931
0.8399
0.80542
0.77094
0.74877
0.72906
0.71921
0.70936
0.70936
0.71429
0.71429
0.71921
0.71921
0.72414
0.72906
0.73892
0.73892
0.73892
0.73892
0.73399
0.73399
0.72906
0.72414
0.72414
0.71921
0.71921
0.71429
0.70936
0.70936
0.70936
0.71429
0.71429
0.71921
0.71921
0.71921
0.71921
0.72414
0.72906
0.72906
0.72906
0.72906
0.73399
0.73892
0.73892
0.73892
0.74877
0.77586
0.80049
0.8202
0.83005
0.83498
0.8202
0.78079
0.74384
0.73892
0.75616
0.76108
0.74877
0.73892
0.72414
0.71921
0.72414
0.72414
0.72414
0.72414
0.72906
0.72906
0.72906
0.72906
0.74384
0.8399
1.0739
1.33
1.3547
0.86946
0.34483
0.014778
-0.068966
-0.0098522
0.14039
0.29064
0.38916
0.46552
0.54926
0.66502
0.77094
0.83498
0.85468
0.87438
0.87931
0.88424
0.88916
0.89409
0.90394
0.91379
0.92611
0.93596
0.95074
0.96552
0.99015
1.0148
1.0443
1.064
1.0788
1.0911
1.0961
1.0788
1.0542
1.0246
0.99015
0.95567
0.90394
0.85961
0.8202
0.78571
0.75616
0.72906
0.71429
0.70443
0.69951
0.69458
0.69458
0.69951
0.69951
0.70443
0.71429
0.71429
0.71921
0.71921
0.71921
0.71921
0.71921
0.71921
0.71921
0.71429
0.70443
0.70443
0.69951
0.69951
0.69458
0.69458
0.69458
0.68966
0.68473
0.68473
0.68473
0.68966
0.68966
0.68966
0.68966
0.68966
0.69458
0.69458
0.69458
0.69458
0.69458
0.69951
0.71429
0.73892
0.76108
0.77586
0.78571
0.78571
0.74877
0.70936
0.68966
0.69458
0.70443
0.70443
0.69458
0.68473
0.67488
0.67488
0.6798
0.6798
0.68473
0.68473
0.68473
0.69458
0.69458
0.69951
0.75616
0.91872
1.2044
1.3153
1.064
0.57389
0.14532
-0.054187
-0.073892
0.064039
0.22414
0.34483
0.42611
0.49507
0.60099
0.71429
0.80049
0.83498
0.84975
0.85468
0.86453
0.87438
0.87931
0.88916
0.89901
0.91379
0.92611
0.94089
0.96059
0.9803
1.0099
1.0394
1.064
1.0837
1.101
1.1108
1.101
1.0837
1.0591
1.0246
0.98522
0.94581
0.89409
0.84975
0.81034
0.78079
0.75616
0.73892
0.72414
0.71429
0.70936
0.70936
0.70936
0.71429
0.71429
0.71921
0.72414
0.72906
0.73399
0.73892
0.73892
0.73892
0.73892
0.72906
0.72906
0.72414
0.72414
0.71921
0.71429
0.71429
0.70936
0.70443
0.70443
0.71429
0.71429
0.71429
0.71429
0.71429
0.71429
0.71429
0.71429
0.71429
0.71921
0.72414
0.72414
0.71921
0.71921
0.72906
0.74384
0.77094
0.78571
0.80049
0.8202
0.82512
0.78571
0.73892
0.72414
0.72906
0.74384
0.74877
0.73399
0.71921
0.70443
0.70443
0.70936
0.71429
0.71921
0.72414
0.72414
0.72906
0.73399
0.74384
0.79557
0.95567
1.234
1.3547
1.1158
0.61576
0.16995
-0.029557
-0.049261
0.068966
0.23399
0.35961
0.44581
0.51478
0.62069
0.73892
0.82512
0.86453
0.88424
0.89901
0.90394
0.90887
0.91379
0.92611
0.93596
0.94581
0.95567
0.97044
0.98522
1.0099
1.0345
1.064
1.0961
1.1108
1.1256
1.1355
1.1256
1.1108
1.0788
1.0443
1.0049
0.96059
0.90887
0.86453
0.82512
0.79064
0.76601
0.74877
0.73399
0.72414
0.71429
0.71429
0.71429
0.70936
0.70936
0.70936
0.71921
0.72414
0.72414
0.71921
0.71921
0.71921
0.71429
0.70443
0.70443
0.70443
0.69951
0.69458
0.68473
0.6798
0.6798
0.6798
0.6798
0.6798
0.67488
0.67488
0.67488
0.6798
0.6798
0.6798
0.68473
0.68473
0.68473
0.68473
0.68966
0.68966
0.68966
0.69458
0.69951
0.71921
0.74384
0.76601
0.78079
0.78571
0.76601
0.71921
0.68473
0.68473
0.69951
0.69951
0.68966
0.6798
0.66995
0.66502
0.66995
0.67488
0.67488
0.6798
0.6798
0.68473
0.68473
0.69458
0.72414
0.83498
1.0911
1.3054
1.1946
0.75616
0.26108
-0.029557
-0.083744
-0.0049261
0.15025
0.29557
0.38424
0.45567
0.54926
0.66502
0.76108
0.81034
0.83005
0.8399
0.84975
0.85468
0.86453
0.87438
0.87931
0.89409
0.90394
0.91872
0.94089
0.96059
0.98522
1.0148
1.0443
1.064
1.0788
1.0961
1.0961
1.0739
1.0493
1.0197
0.98522
0.94089
0.89409
0.84975
0.81034
0.77586
0.73892
0.71921
0.70936
0.69951
0.69458
0.68966
0.68473
0.68473
0.69458
0.69951
0.70443
0.70936
0.71429
0.71429
0.71429
0.71429
0.71429
0.70936
0.70443
0.69951
0.69951
0.69458
0.68966
0.68473
0.68966
0.68966
0.68966
0.68966
0.69458
0.68966
0.68966
0.69458
0.69458
0.69458
0.69458
0.69458
0.69951
0.70443
0.70443
0.70443
0.70443
0.71921
0.74384
0.77094
0.78079
0.79064
0.79557
0.76601
0.72414
0.69951
0.70936
0.71921
0.72414
0.70936
0.69951
0.69458
0.69458
0.69458
0.69458
0.69458
0.69951
0.70443
0.70443
0.70443
0.71921
0.77094
0.93596
1.2094
1.3054
1.0493
0.56404
0.14039
-0.039409
-0.059113
0.073892
0.23399
0.34975
0.42611
0.49507
0.60099
0.71921
0.80542
0.84483
0.85961
0.87438
0.87931
0.88916
0.89901
0.90887
0.91872
0.93596
0.94581
0.96059
0.98522
1.0049
1.0394
1.069
1.0961
1.1207
1.1404
1.1453
1.1404
1.1207
1.0911
1.0542
1.0148
0.96552
0.91872
0.87438
0.83005
0.80049
0.77586
0.76108
0.74384
0.73892
0.72906
0.72414
0.72414
0.72414
0.72906
0.73399
0.73892
0.73892
0.74384
0.74384
0.74384
0.74384
0.74384
0.73892
0.73399
0.72906
0.72414
0.71921
0.71429
0.71429
0.70936
0.70936
0.70936
0.70443
0.70443
0.70443
0.70443
0.69951
0.69951
0.69951
0.69951
0.69951
0.69951
0.69951
0.70443
0.70936
0.71921
0.73892
0.76108
0.78079
0.79064
0.78571
0.74877
0.70936
0.69458
0.69951
0.70936
0.71429
0.69951
0.68473
0.67488
0.67488
0.67488
0.6798
0.6798
0.68473
0.68473
0.68966
0.69458
0.70443
0.74384
0.90394
1.1946
1.33
1.0911
0.57389
0.12069
-0.078818
-0.10099
0.039409
0.20936
0.33498
0.40887
0.49015
0.60099
0.71429
0.79557
0.83005
0.84483
0.85468
0.85961
0.86453
0.87438
0.88424
0.88916
0.89901
0.91379
0.93596
0.95567
0.9803
1.0049
1.0345
1.0591
1.0788
1.101
1.1108
1.101
1.0788
1.0493
1.0099
0.97537
0.93103
0.88424
0.83498
0.79064
0.76108
0.73399
0.70936
0.69951
0.68966
0.68473
0.6798
0.6798
0.68966
0.69458
0.69951
0.70443
0.70443
0.70936
0.71429
0.71429
0.70936
0.70443
0.69951
0.69951
0.69458
0.68966
0.68473
0.68473
0.68473
0.68966
0.68473
0.68473
0.68473
0.68473
0.68473
0.68966
0.69458
0.69458
0.69458
0.69458
0.69458
0.69458
0.69951
0.70443
0.71429
0.73399
0.76601
0.78079
0.79557
0.80049
0.78079
0.73399
0.69951
0.69951
0.71429
0.71429
0.70443
0.69951
0.68473
0.68473
0.68473
0.68473
0.68966
0.69458
0.69951
0.69951
0.70443
0.70443
0.72906
0.8399
1.0837
1.3005
1.1946
0.78079
0.30049
0.0098522
-0.049261
0.024631
0.1798
0.3202
0.41379
0.47537
0.55911
0.6798
0.78079
0.83498
0.85468
0.86946
0.87931
0.89409
0.89901
0.89901
0.90394
0.91872
0.93596
0.94581
0.96552
0.98522
1.0099
1.0443
1.069
1.0911
1.1108
1.1207
1.1207
1.1059
1.0837
1.0493
1.0197
0.97044
0.92611
0.87931
0.83498
0.79557
0.76601
0.74384
0.73399
0.72414
0.71429
0.71429
0.71429
0.71429
0.71921
0.72414
0.73399
0.73892
0.73892
0.73892
0.74384
0.74384
0.74384
0.74384
0.73892
0.73399
0.73399
0.72906
0.72906
0.72414
0.72906
0.72414
0.72414
0.72414
0.72906
0.72906
0.72906
0.72906
0.72906
0.72906
0.72906
0.72906
0.73399
0.73892
0.73892
0.73892
0.74877
0.77586
0.80049
0.81527
0.82512
0.83005
0.79064
0.74384
0.72414
0.73399
0.74877
0.74384
0.72906
0.71429
0.70443
0.70443
0.70936
0.71429
0.71429
0.71921
0.72414
0.72414
0.72906
0.73892
0.77586
0.92611
1.2094
1.3596
1.1404
0.63547
0.1601
-0.054187
-0.083744
0.044335
0.21429
0.3399
0.42611
0.5
0.60591
0.72414
0.81034
0.84975
0.86453
0.87438
0.87931
0.88424
0.88916
0.89409
0.89901
0.90887
0.91872
0.94089
0.95567
0.9803
1.0049
1.0345
1.064
1.0911
1.101
1.1108
1.101
1.0837
1.0542
1.0246
0.9803
0.93103
0.88424
0.8399
0.80049
0.76601
0.73399
0.71429
0.69951
0.69458
0.69458
0.69458
0.69458
0.69458
0.69951
0.69951
0.70443
0.70936
0.71429
0.71429
0.71429
0.71429
0.70936
0.70443
0.70443
0.69951
0.69951
0.69458
0.68473
0.68473
0.68473
0.6798
0.6798
0.68473
0.68473
0.68473
0.68473
0.68473
0.68966
0.69458
0.69458
0.69458
0.69458
0.69458
0.69458
0.69458
0.69951
0.70936
0.72414
0.74877
0.76601
0.78079
0.79064
0.78079
0.73892
0.69951
0.69458
0.69951
0.70936
0.71429
0.69951
0.68473
0.6798
0.6798
0.6798
0.6798
0.68473
0.68966
0.69458
0.69951
0.69951
0.71429
0.80049
1.0246
1.2759
1.3103
0.87438
0.37438
0.034483
-0.068966
-0.019704
0.12562
0.27586
0.37931
0.45074
0.52956
0.64532
0.74877
0.81527
0.83498
0.84975
0.85961
0.86946
0.87438
0.87931
0.89409
0.90394
0.91872
0.93103
0.94581
0.96552
0.99507
1.0197
1.0493
1.0739
1.0961
1.1059
1.1108
1.101
1.0739
1.0443
1.0049
0.96552
0.91872
0.87438
0.83005
0.79064
0.76108
0.73399
0.71429
0.70443
0.69458
0.69458
0.69458
0.69458
0.69458
0.69951
0.70443
0.70443
0.71429
0.71921
0.71921
0.71429
0.71429
0.71921
0.71921
0.70936
0.70443
0.69951
0.69458
0.69458
0.68473
0.68473
0.68473
0.68473
0.68473
0.68473
0.68473
0.68966
0.69458
0.69458
0.69951
0.69951
0.69951
0.70443
0.70443
0.70443
0.70443
0.70443
0.71921
0.74384
0.77586
0.79064
0.80049
0.80542
0.78571
0.74384
0.71429
0.71429
0.72414
0.72906
0.72414
0.71429
0.69951
0.69458
0.69951
0.70443
0.70443
0.71429
0.71429
0.71921
0.71921
0.72414
0.74384
0.85468
1.1207
1.3448
1.2389
0.79064
0.27586
-0.0098522
-0.068966
0.0098522
0.16995
0.31527
0.40887
0.4803
0.57882
0.69951
0.80049
0.85468
0.87438
0.89409
0.89901
0.90394
0.91379
0.91872
0.92611
0.93596
0.94581
0.96059
0.9803
1.0049
1.0296
1.0591
1.0837
1.1059
1.1207
1.1305
1.1355
1.1158
1.0911
1.0493
1.0099
0.96552
0.90887
0.86453
0.82512
0.79064
0.76108
0.73399
0.71921
0.71429
0.70443
0.70443
0.70443
0.70443
0.70443
0.70443
0.71429
0.71429
0.71921
0.72414
0.72414
0.72414
0.72414
0.71921
0.71429
0.70936
0.70443
0.70443
0.69951
0.69458
0.69458
0.69458
0.69458
0.68966
0.69458
0.69458
0.69458
0.69458
0.69458
0.69951
0.69458
0.69458
0.69458
0.69951
0.69951
0.70443
0.70443
0.71429
0.73399
0.76108
0.78079
0.79064
0.80049
0.77586
0.72906
0.69951
0.70443
0.71921
0.72414
0.71429
0.69951
0.68966
0.68966
0.69951
0.70443
0.70936
0.70936
0.71429
0.71921
0.71921
0.72906
0.76601
0.90394
1.1798
1.3448
1.165
0.69458
0.22414
-0.014778
-0.049261
0.044335
0.20443
0.3399
0.42611
0.49507
0.59113
0.70443
0.80049
0.84483
0.85961
0.86946
0.87438
0.87931
0.88424
0.89409
0.89901
0.91379
0.92611
0.94089
0.95567
0.9803
1.0049
1.0296
1.0542
1.0739
1.0961
1.1059
1.1108
1.0837
1.0591
1.0197
0.9803
0.93596
0.88424
0.84483
0.80542
0.76601
0.73892
0.71429
0.70443
0.69458
0.68473
0.68473
0.68473
0.68473
0.68473
0.69458
0.69951
0.70443
0.70936
0.71429
0.71921
0.71921
0.71921
0.71429
0.70936
0.70443
0.69951
0.69458
0.68966
0.68473
0.68473
0.68473
0.68473
0.68473
0.68473
0.68473
0.68473
0.68473
0.68966
0.68966
0.68966
0.68966
0.68966
0.69458
0.69458
0.69458
0.69458
0.71429
0.74384
0.76601
0.77586
0.78571
0.77586
0.72906
0.69458
0.68473
0.69951
0.70443
0.69951
0.68966
0.6798
0.67488
0.67488
0.6798
0.68473
0.68473
0.68473
0.68966
0.69458
0.69951
0.71429
0.81034
1.0542
1.2956
1.3153
0.84483
0.35468
0.034483
-0.049261
0.0049261
0.15517
0.30049
0.40394
0.47044
0.54926
0.66502
0.76601
0.82512
0.84975
0.86946
0.87438
0.87931
0.88916
0.89409
0.89901
0.90394
0.91379
0.93103
0.95074
0.97044
0.99507
1.0197
1.0493
1.069
1.0911
1.0961
1.101
1.0911
1.064
1.0345
1
0.95567
0.90887
0.86453
0.8202
0.78571
0.75616
0.73399
0.71429
0.70443
0.70443
0.69951
0.69951
0.69951
0.69951
0.70443
0.71429
0.71921
0.72414
0.72906
0.72906
0.72906
0.72906
0.72906
0.72414
0.71921
0.71429
0.70936
0.70936
0.70936
0.70443
0.70443
0.70443
0.70936
0.70443
0.70443
0.70443
0.70936
0.71429
0.71429
0.71429
0.71429
0.71429
0.71921
0.71921
0.72414
0.72906
0.72906
0.72906
0.74877
0.77586
0.79064
0.80542
0.81034
0.79064
0.75616
0.71429
0.71429
0.72414
0.73399
0.72906
0.71921
0.70443
0.69951
0.70443
0.70936
0.71429
0.71429
0.71921
0.72414
0.72906
0.73892
0.76108
0.86946
1.1256
1.3596
1.3645
0.85468
0.34975
0.034483
-0.044335
0.019704
0.1798
0.33005
0.43103
0.49507
0.57882
0.69951
0.80542
0.86453
0.87931
0.88916
0.89901
0.90887
0.91872
0.92611
0.94089
0.95074
0.96552
0.98522
1
1.0246
1.0493
1.0837
1.1207
1.1552
1.1749
1.1798
1.1847
1.1749
1.1502
1.1108
1.069
1.0197
0.97537
0.93103
0.88424
0.84483
0.81034
0.78571
0.77094
0.76108
0.75616
0.74877
0.74877
0.74877
0.74877
0.75616
0.76108
0.76601
0.77094
0.78079
0.78079
0.77586
0.77094
0.77094
0.77094
0.76601
0.75616
0.74877
0.74384
0.73892
0.73399
0.72906
0.72906
0.72906
0.72414
0.71921
0.71429
0.71429
0.71921
0.72414
0.72414
0.71921
0.71921
0.71429
0.71429
0.71429
0.71921
0.72414
0.73399
0.76108
0.78571
0.80049
0.81034
0.80542
0.77094
0.72414
0.70936
0.71429
0.72414
0.71429
0.70443
0.69458
0.6798
0.6798
0.68473
0.68473
0.68473
0.68473
0.68473
0.68966
0.68966
0.69951
0.74877
0.93596
1.2192
1.3202
1.0394
0.5197
0.068966
-0.11084
-0.12562
0.029557
0.19951
0.3202
0.39901
0.47537
0.59113
0.70936
0.78571
0.81527
0.83498
0.84975
0.85468
0.85961
0.86946
0.87931
0.89409
0.90394
0.91872
0.93596
0.96059
0.98522
1.0099
1.0394
1.069
1.0911
1.101
1.1108
1.101
1.0837
1.0542
1.0148
0.97537
0.93103
0.87931
0.83498
0.79557
0.76108
0.73399
0.71429
0.69951
0.69458
0.68966
0.68473
0.68473
0.68966
0.69458
0.69458
0.69951
0.70443
0.70443
0.70936
0.70936
0.70443
0.69951
0.69951
0.69951
0.69458
0.68966
0.68473
0.68473
0.6798
0.6798
0.67488
0.67488
0.67488
0.67488
0.6798
0.6798
0.6798
0.68473
0.68473
0.68966
0.68966
0.68966
0.68966
0.68966
0.68966
0.69458
0.69951
0.71921
0.74384
0.77094
0.78571
0.79064
0.78079
0.73892
0.70443
0.68966
0.69951
0.70443
0.70936
0.69458
0.6798
0.67488
0.67488
0.6798
0.68473
0.68473
0.68473
0.68966
0.69458
0.69951
0.71429
0.80542
1.0345
1.2808
1.3103
0.87931
0.37931
0.034483
-0.064039
-0.0098522
0.13547
0.28571
0.38916
0.45567
0.53448
0.65025
0.75616
0.81527
0.83498
0.84975
0.85468
0.86453
0.87438
0.87931
0.88916
0.89901
0.91379
0.92611
0.94581
0.96552
0.99507
1.0246
1.0493
1.0739
1.0961
1.1108
1.1108
1.0961
1.069
1.0443
1.0099
0.97044
0.92611
0.87438
0.83498
0.79557
0.76108
0.73892
0.71921
0.70443
0.69951
0.69458
0.69458
0.69458
0.69951
0.70443
0.71429
0.71921
0.72414
0.72414
0.72906
0.72906
0.72906
0.72906
0.72414
0.71921
0.71429
0.70936
0.70936
0.70443
0.70443
0.70443
0.70443
0.69951
0.69951
0.69951
0.70443
0.70443
0.70443
0.70443
0.70443
0.70936
0.70443
0.70443
0.70936
0.71429
0.71429
0.72414
0.74384
0.77586
0.79064
0.80542
0.81034
0.78571
0.74384
0.71921
0.71921
0.72906
0.73399
0.72414
0.71921
0.70443
0.70443
0.70443
0.70443
0.70936
0.71429
0.71429
0.71429
0.71921
0.72906
0.76108
0.88916
1.165
1.3547
1.2044
0.73892
0.25123
-0.014778
-0.059113
0.029557
0.18966
0.33005
0.42118
0.49015
0.59113
0.70443
0.80542
0.84975
0.86946
0.88916
0.89901
0.90394
0.91379
0.91872
0.93103
0.94089
0.95567
0.97044
0.99015
1.0099
1.0394
1.069
1.0961
1.1207
1.1404
1.1502
1.1453
1.1256
1.0961
1.0591
1.0148
0.97044
0.92611
0.87438
0.82512
0.79064
0.76108
0.73399
0.71429
0.70936
0.70443
0.69951
0.69458
0.69458
0.69458
0.69951
0.69951
0.70443
0.71429
0.71921
0.71921
0.71429
0.70936
0.70443
0.70443
0.69951
0.69458
0.68473
0.68473
0.6798
0.6798
0.67488
0.66995
0.66995
0.66995
0.67488
0.6798
0.6798
0.6798
0.6798
0.6798
0.68473
0.68473
0.68473
0.68966
0.69458
0.69951
0.70936
0.73399
0.76108
0.77586
0.78571
0.79064
0.76601
0.71921
0.69458
0.69951
0.70443
0.70936
0.70443
0.69458
0.6798
0.67488
0.6798
0.68473
0.68473
0.68473
0.68966
0.69458
0.69951
0.70936
0.74384
0.88916
1.1798
1.3448
1.1552
0.66995
0.18966
-0.044335
-0.073892
0.024631
0.19458
0.33005
0.42118
0.49015
0.59113
0.70443
0.79557
0.83498
0.85468
0.86453
0.87438
0.87931
0.88916
0.89901
0.90394
0.91872
0.93103
0.94581
0.96059
0.98522
1.0099
1.0394
1.064
1.0911
1.1059
1.1158
1.1158
1.0961
1.069
1.0296
0.99015
0.94581
0.89901
0.84975
0.80542
0.77094
0.73892
0.71429
0.69951
0.68966
0.68473
0.6798
0.68473
0.68473
0.68473
0.69458
0.69458
0.69951
0.70443
0.70936
0.70443
0.70443
0.70443
0.69951
0.69458
0.68966
0.68473
0.6798
0.6798
0.67488
0.67488
0.67488
0.67488
0.67488
0.67488
0.6798
0.6798
0.6798
0.68473
0.68473
0.68473
0.68966
0.68966
0.69458
0.69458
0.69458
0.69951
0.70936
0.73892
0.76108
0.78079
0.79064
0.78079
0.74384
0.70443
0.69458
0.70443
0.71429
0.71429
0.69951
0.68966
0.6798
0.6798
0.68473
0.68966
0.69458
0.69458
0.69458
0.69951
0.70443
0.72414
0.80049
1.0099
1.2709
1.3251
0.95567
0.45567
0.086207
-0.039409
-0.0049261
0.13054
0.28079
0.38424
0.45567
0.53448
0.64532
0.74877
0.81527
0.84483
0.85961
0.87438
0.88424
0.88916
0.89901
0.90887
0.91872
0.93103
0.94581
0.96552
0.98522
1.0049
1.0296
1.0591
1.0837
1.1059
1.1207
1.1207
1.1158
1.0911
1.0591
1.0246
0.98522
0.94089
0.89409
0.84483
0.80542
0.77586
0.74877
0.72906
0.71921
0.71429
0.70936
0.70936
0.70936
0.71429
0.71921
0.72414
0.72906
0.73892
0.74384
0.74877
0.74384
0.74384
0.73892
0.73399
0.72906
0.71921
0.71921
0.71921
0.71921
0.70936
0.70443
0.70443
0.71429
0.70936
0.70443
0.70443
0.70936
0.70936
0.71429
0.71429
0.71921
0.71921
0.71921
0.71921
0.71921
0.72414
0.73892
0.76601
0.78571
0.80542
0.81527
0.81034
0.77094
0.72906
0.72414
0.73399
0.74384
0.73399
0.71921
0.70443
0.70443
0.70443
0.70443
0.71429
0.71429
0.71429
0.71921
0.71921
0.71921
0.73399
0.80049
1.0148
1.2956
1.3645
0.99507
0.46059
0.059113
-0.083744
-0.049261
0.091133
0.25616
0.36946
0.45074
0.52956
0.64532
0.75616
0.82512
0.85468
0.86946
0.87931
0.88916
0.89409
0.90394
0.91379
0.92611
0.94089
0.95567
0.96552
0.98522
1.0099
1.0394
1.069
1.0911
1.1108
1.1256
1.1256
1.1158
1.0911
1.064
1.0246
0.98522
0.93596
0.88424
0.8399
0.80542
0.77094
0.74384
0.72414
0.71429
0.70443
0.69951
0.69951
0.69951
0.69951
0.69951
0.70443
0.70936
0.71429
0.71921
0.71921
0.71921
0.71921
0.71429
0.71429
0.70443
0.69951
0.69951
0.69458
0.68966
0.68473
0.68473
0.68473
0.68473
0.68473
0.68473
0.68473
0.68473
0.68966
0.69458
0.69458
0.69458
0.69458
0.69458
0.69458
0.69951
0.70443
0.72414
0.74877
0.77094
0.78079
0.79064
0.77586
0.72906
0.69458
0.69458
0.70936
0.71429
0.69951
0.69458
0.6798
0.67488
0.6798
0.6798
0.6798
0.68473
0.68966
0.69458
0.69458
0.70443
0.71921
0.8202
1.069
1.3005
1.3054
0.8202
0.3202
0.0049261
-0.068966
-0.0049261
0.15025
0.29557
0.39409
0.46552
0.54926
0.66502
0.76108
0.8202
0.8399
0.85468
0.85961
0.87438
0.87931
0.89409
0.90394
0.91379
0.92611
0.94089
0.96059
0.9803
1.0049
1.0296
1.0542
1.0739
1.0961
1.1108
1.1108
1.0961
1.069
1.0443
1.0049
0.96552
0.91872
0.87438
0.83005
0.79064
0.75616
0.73399
0.71429
0.70443
0.69951
0.69458
0.69458
0.69458
0.69458
0.69951
0.70443
0.71429
0.71429
0.71921
0.72414
0.72414
0.72414
0.71429
0.70936
0.70443
0.69951
0.69458
0.68966
0.68966
0.68966
0.68966
0.68473
0.68473
0.68966
0.68966
0.69458
0.69458
0.69458
0.69951
0.69951
0.69951
0.69951
0.69951
0.70443
0.70443
0.71429
0.73399
0.76108
0.77586
0.78571
0.79557
0.77586
0.72906
0.69951
0.69951
0.71921
0.72414
0.70936
0.69458
0.68473
0.6798
0.6798
0.68473
0.68966
0.69458
0.69951
0.70443
0.70443
0.70443
0.73399
0.85468
1.1207
1.3153
1.1749
0.72414
0.25616
0.0049261
-0.039409
0.044335
0.19458
0.33005
0.42118
0.4803
0.56897
0.68473
0.78079
0.83005
0.84975
0.86453
0.87438
0.87931
0.89409
0.90394
0.90887
0.91872
0.93596
0.95074
0.97044
0.99507
1.0246
1.0493
1.0739
1.101
1.1158
1.1256
1.1305
1.1158
1.0911
1.0591
1.0197
0.9803
0.93103
0.88424
0.8399
0.80542
0.77586
0.75616
0.73892
0.72906
0.71921
0.71921
0.71921
0.71921
0.72414
0.72906
0.73892
0.74384
0.74384
0.74384
0.74877
0.74877
0.74384
0.73892
0.73399
0.72414
0.71921
0.71429
0.71429
0.70443
0.70443
0.70443
0.70443
0.70443
0.70443
0.70443
0.69951
0.70443
0.70443
0.70443
0.70443
0.70936
0.70936
0.70936
0.71429
0.71429
0.71429
0.71921
0.73399
0.76601
0.78571
0.80049
0.81034
0.79557
0.75616
0.71429
0.70936
0.72414
0.73399
0.72906
0.71429
0.69951
0.69458
0.69458
0.69458
0.69458
0.69951
0.69951
0.70443
0.70443
0.70936
0.72414
0.81034
1.0493
1.3103
1.3498
0.90887
0.37931
0.024631
-0.078818
-0.019704
0.13054
0.28571
0.38916
0.46059
0.54926
0.66502
0.77094
0.83005
0.84975
0.86453
0.87438
0.87931
0.88916
0.89901
0.90887
0.91872
0.93103
0.94581
0.96552
0.98522
1.0099
1.0394
1.064
1.0911
1.1108
1.1207
1.1256
1.1158
1.0911
1.0591
1.0246
0.9803
0.93596
0.88424
0.84483
0.80542
0.77094
0.74384
0.72414
0.71429
0.70936
0.70443
0.70443
0.70443
0.70443
0.71429
0.71429
0.71921
0.72414
0.72414
0.72906
0.72906
0.72414
0.71921
0.71429
0.70936
0.70443
0.70443
0.69951
0.69458
0.69458
0.69458
0.69458
0.69458
0.69458
0.69458
0.69458
0.69458
0.69458
0.69458
0.69951
0.69951
0.69951
0.69951
0.69951
0.70443
0.70443
0.71921
0.73399
0.76108
0.78079
0.79064
0.79557
0.77586
0.72906
0.70443
0.69951
0.71429
0.71921
0.70443
0.69951
0.68473
0.68473
0.68473
0.68473
0.68473
0.68966
0.69458
0.69458
0.69951
0.70443
0.74384
0.87931
1.1502
1.3054
1.1355
0.6798
0.21921
-0.0098522
-0.039409
0.059113
0.21429
0.34483
0.43103
0.49507
0.58621
0.69458
0.78571
0.83005
0.84975
0.85961
0.87438
0.87931
0.88916
0.89409
0.90394
0.91379
0.92611
0.94089
0.95567
0.9803
1.0049
1.0296
1.0493
1.069
1.0911
1.0961
1.0961
1.0788
1.0542
1.0246
0.98522
0.94581
0.89901
0.85961
0.8202
0.78571
0.75616
0.73399
0.71921
0.71429
0.70443
0.70443
0.70443
0.70936
0.71429
0.71429
0.71921
0.72906
0.73892
0.74384
0.74384
0.74384
0.73892
0.72906
0.72414
0.71921
0.71921
0.71921
0.71429
0.71429
0.70936
0.70443
0.70443
0.70443
0.70443
0.70443
0.70936
0.70936
0.70936
0.70443
0.70936
0.71429
0.71429
0.71429
0.71429
0.71429
0.71429
0.71921
0.74384
0.77586
0.79064
0.80542
0.80542
0.78571
0.74384
0.71429
0.71429
0.72414
0.72906
0.71921
0.70936
0.69951
0.69458
0.69951
0.69951
0.69951
0.70443
0.70443
0.70936
0.71429
0.72414
0.74877
0.85961
1.1158
1.335
1.234
0.79557
0.29557
0
-0.059113
0.019704
0.17488
0.3202
0.40887
0.47537
0.55911
0.6798
0.78079
0.83498
0.85468
0.86946
0.87931
0.87931
0.88424
0.89409
0.89901
0.91379
0.92611
0.94089
0.95567
0.9803
1.0049
1.0296
1.0542
1.0739
1.0961
1.101
1.1059
1.0911
1.064
1.0394
1
0.96059
0.91872
0.87438
0.83498
0.80049
0.77094
0.74877
0.72906
0.71921
0.71429
0.70936
0.70443
0.70936
0.70936
0.71429
0.71921
0.72414
0.72906
0.73399
0.73399
0.72906
0.72906
0.72414
0.72414
0.71921
0.71429
0.70443
0.70443
0.69951
0.69951
0.69458
0.69458
0.69458
0.69458
0.69458
0.69458
0.69458
0.69458
0.69458
0.69458
0.69458
0.69951
0.69951
0.69951
0.69951
0.69951
0.70443
0.71429
0.72906
0.75616
0.77586
0.79064
0.80049
0.78571
0.74384
0.70936
0.69951
0.71429
0.71921
0.71429
0.69951
0.68473
0.6798
0.68473
0.68473
0.68966
0.69458
0.69951
0.69951
0.69951
0.70443
0.71921
0.81034
1.0493
1.2956
1.3202
0.85961
0.35961
0.029557
-0.064039
-0.0049261
0.14532
0.29557
0.39409
0.46552
0.54926
0.6601
0.76108
0.8202
0.84483
0.85468
0.86453
0.86946
0.87438
0.88916
0.89901
0.90394
0.91872
0.93103
0.94581
0.96552
0.98522
1.0099
1.0394
1.0591
1.0739
1.0911
1.0911
1.0788
1.0591
1.0296
0.99507
0.95567
0.90887
0.86946
0.82512
0.78571
0.75616
0.72906
0.71429
0.70443
0.69458
0.69458
0.69458
0.69951
0.69951
0.70443
0.71429
0.71921
0.72414
0.72414
0.72414
0.72414
0.71921
0.71429
0.71429
0.70443
0.70443
0.69951
0.69458
0.69458
0.68966
0.68473
0.68473
0.68473
0.69458
0.71921
0.74384
0.76108
0.77094
0.79064
0.78079
0.72906
0.68473
0.66502
0.67488
0.68473
0.68473
0.6798
0.66502
0.6601
0.6601
0.6601
0.66502
0.66502
0.67488
0.67488
0.6798
0.6798
0.68966
0.74877
0.93596
1.2143
1.2808
0.95074
0.45074
0.073892
-0.059113
-0.064039
0.096059
0.25616
0.36946
0.44581
0.51478
0.62069
0.73399
0.81034
0.84483
0.85468
0.86946
0.87438
0.88424
0.89409
0.89901
0.90887
0.91872
0.93596
0.95567
0.97537
1
1.0246
1.0542
1.0788
1.0961
1.1108
1.1158
1.1059
1.0788
1.0493
1.0148
0.97537
0.92611
0.87438
0.83005
0.79064
0.76108
0.73892
0.72414
0.71429
0.69951
0.69458
0.69458
0.69458
0.69951
0.70443
0.71429
0.71429
0.71921
0.71921
0.72414
0.72414
0.71921
0.71921
0.71429
0.70936
0.70443
0.70443
0.69951
0.69458
0.69458
0.69458
0.69458
0.69458
0.69458
0.69458
0.69458
0.69458
0.69951
0.69458
0.69458
0.69458
0.69458
0.69458
0.69458
0.69951
0.69951
0.69951
0.69951
0.70443
0.70443
0.70443
0.70443
0.70443
0.71429
0.73399
0.76108
0.78079
0.79064
0.80049
0.78571
0.74384
0.70443
0.69458
0.69951
0.71429
0.71921
0.70443
0.69458
0.68473
0.68473
0.68966
0.69458
0.69458
0.69951
0.69951
0.70443
0.71429
0.73892
0.85468
1.1256
1.3448
1.2389
0.79557
0.28079
-0.014778
-0.073892
0.0098522
0.16995
0.31527
0.40394
0.47537
0.56404
0.6798
0.78079
0.83005
0.84483
0.85961
0.86946
0.87438
0.87931
0.88424
0.89409
0.90394
0.91872
0.93596
0.94581
0.97044
0.99507
1.0148
1.0394
1.064
1.0788
1.0911
1.0961
1.0788
1.064
1.0345
1
0.96552
0.91872
0.87438
0.83498
0.79557
0.76108
0.73892
0.72906
0.71921
0.71429
0.70936
0.70936
0.71429
0.71429
0.71921
0.72414
0.72906
0.73399
0.73892
0.73892
0.73892
0.72906
0.72414
0.71429
0.70936
0.70443
0.70443
0.69951
0.69951
0.69458
0.69458
0.69458
0.69458
0.69458
0.69458
0.69458
0.69458
0.69458
0.69951
0.69951
0.69951
0.69951
0.70443
0.70443
0.70443
0.70443
0.70443
0.70443
0.71429
0.73892
0.76601
0.78571
0.79064
0.81034
0.81527
0.77586
0.72906
0.69951
0.69458
0.70443
0.71429
0.71921
0.69951
0.68966
0.68966
0.68966
0.69458
0.69458
0.69951
0.69951
0.70443
0.71429
0.72906
0.8202
1.064
1.2906
1.2956
0.8202
0.33498
0.039409
-0.029557
0.034483
0.18473
0.32512
0.42118
0.4803
0.55911
0.66995
0.77094
0.82512
0.84975
0.85961
0.86453
0.87438
0.87931
0.88916
0.89409
0.90394
0.91379
0.93103
0.94581
0.96059
0.98522
1.0049
1.0296
1.0493
1.064
1.0739
1.0739
1.069
1.0493
1.0246
0.99507
0.95567
0.91379
0.87438
0.83005
0.80049
0.77094
0.74877
0.73399
0.71921
0.71429
0.71429
0.71429
0.71921
0.72414
0.72906
0.73399
0.73892
0.74384
0.74384
0.74384
0.74384
0.73892
0.73892
0.73399
0.72906
0.72414
0.71921
0.71921
0.71429
0.71429
0.71429
0.71429
0.71429
0.71429
0.71429
0.71429
0.71429
0.71429
0.71429
0.71429
0.71921
0.71429
0.71429
0.71429
0.71921
0.71921
0.71921
0.71921
0.71921
0.72906
0.74384
0.77094
0.79064
0.80049
0.81034
0.81527
0.77586
0.72906
0.70443
0.71429
0.72414
0.72906
0.72414
0.71429
0.69951
0.69951
0.70443
0.70443
0.71429
0.71429
0.71429
0.71429
0.71921
0.72906
0.79064
0.98522
1.266
1.3399
1.0099
0.5
0.10099
-0.039409
-0.044335
0.11576
0.27094
0.37931
0.45074
0.52463
0.63054
0.73399
0.81034
0.8399
0.85468
0.85961
0.86946
0.87438
0.87931
0.88916
0.89901
0.91379
0.92611
0.94089
0.96059
0.9803
1
1.0246
1.0493
1.064
1.0739
1.0788
1.0739
1.0591
1.0394
1.0049
0.97044
0.93103
0.88424
0.84483
0.80542
0.77586
0.74384
0.72906
0.71921
0.71429
0.70936
0.70443
0.70443
0.71429
0.71921
0.72414
0.72906
0.73399
0.73892
0.73892
0.73399
0.72906
0.72414
0.72414
0.71921
0.70936
0.70936
0.70443
0.70443
0.70443
0.69951
0.70443
0.70443
0.69951
0.69951
0.70443
0.70443
0.70443
0.70443
0.70443
0.70443
0.70936
0.70443
0.70443
0.70443
0.70443
0.70936
0.71429
0.71921
0.73892
0.77094
0.78571
0.80049
0.80542
0.78079
0.73399
0.70936
0.70443
0.71921
0.72414
0.71429
0.70443
0.69458
0.68473
0.68966
0.69458
0.69458
0.69951
0.69951
0.70443
0.70443
0.71429
0.73892
0.86946
1.1404
1.3202
1.17
0.71429
0.24384
-0.0049261
-0.044335
0.044335
0.20936
0.34483
0.43103
0.49015
0.57882
0.68966
0.78571
0.83005
0.84975
0.85961
0.86453
0.87438
0.87931
0.88916
0.89409
0.90394
0.91872
0.93596
0.94581
0.96552
0.98522
1.0099
1.0345
1.0493
1.064
1.0739
1.0739
1.064
1.0443
1.0197
0.98522
0.94581
0.90394
0.86453
0.82512
0.79064
0.76601
0.73892
0.72414
0.71429
0.70936
0.70443
0.70936
0.71429
0.71921
0.72414
0.72414
0.72906
0.73892
0.73892
0.73399
0.72906
0.72906
0.71921
0.71429
0.71429
0.70936
0.70443
0.70443
0.70443
0.69951
0.69458
0.69951
0.69951
0.69951
0.69951
0.70443
0.70443
0.70443
0.70443
0.70443
0.70443
0.70443
0.70936
0.71429
0.71429
0.71921
0.71921
0.72414
0.75616
0.78079
0.79557
0.80542
0.80049
0.77094
0.73399
0.71429
0.71921
0.72414
0.72906
0.71429
0.70443
0.69458
0.69458
0.69951
0.70443
0.70936
0.70936
0.70443
0.70936
0.71429
0.71921
0.76108
0.89901
1.1749
1.3202
1.1256
0.6601
0.20443
-0.0098522
-0.034483
0.068966
0.22414
0.34975
0.43103
0.49507
0.59113
0.70443
0.80049
0.8399
0.85468
0.86453
0.87438
0.87931
0.88916
0.89409
0.90394
0.91379
0.92611
0.93596
0.95567
0.97044
0.99507
1.0197
1.0394
1.0542
1.069
1.0788
1.0739
1.064
1.0394
1.0099
0.9803
0.94089
0.89901
0.85468
0.81034
0.78079
0.74877
0.72906
0.71429
0.70443
0.70443
0.70443
0.70443
0.70936
0.71429
0.72414
0.72906
0.72906
0.73892
0.73399
0.73399
0.72906
0.72906
0.72414
0.72414
0.71429
0.70936
0.70443
0.70443
0.69951
0.69951
0.69458
0.69458
0.69458
0.68966
0.68966
0.68966
0.69458
0.69458
0.69951
0.69951
0.70443
0.70443
0.70443
0.70443
0.70936
0.72414
0.74877
0.77094
0.78571
0.79557
0.78571
0.74877
0.70936
0.69951
0.70936
0.71429
0.70936
0.69951
0.68473
0.6798
0.6798
0.68473
0.68473
0.68966
0.68966
0.69458
0.69458
0.69951
0.70936
0.77094
0.95567
1.234
1.3054
0.98522
0.48522
0.086207
-0.059113
-0.029557
0.10591
0.26108
0.37438
0.44581
0.52463
0.63054
0.73892
0.81527
0.84483
0.85961
0.86946
0.87931
0.87931
0.88916
0.89901
0.90887
0.91872
0.93596
0.94581
0.96552
0.98522
1.0049
1.0296
1.0493
1.069
1.0788
1.0911
1.0788
1.064
1.0443
1.0099
0.97044
0.93103
0.88916
0.84483
0.81034
0.77586
0.75616
0.73399
0.71921
0.71429
0.70936
0.70936
0.71429
0.71429
0.71921
0.71921
0.72414
0.72906
0.73399
0.73399
0.72906
0.72414
0.71921
0.71429
0.71429
0.70443
0.69951
0.69951
0.69951
0.69951
0.69458
0.69458
0.69458
0.69458
0.69458
0.69951
0.69951
0.69951
0.69951
0.69951
0.69951
0.70443
0.70443
0.70936
0.70936
0.71429
0.71429
0.73399
0.76108
0.78079
0.79064
0.80049
0.78079
0.74384
0.70936
0.69951
0.71429
0.71921
0.70936
0.69951
0.69458
0.68473
0.68966
0.68966
0.69458
0.69458
0.69458
0.69458
0.69951
0.69951
0.71921
0.80542
1.0394
1.2709
1.2906
0.84483
0.36453
0.054187
-0.029557
0.029557
0.16995
0.31527
0.40887
0.47044
0.54926
0.6601
0.75616
0.81527
0.8399
0.85468
0.86453
0.87438
0.87931
0.88916
0.89409
0.90394
0.91872
0.93103
0.94581
0.96552
0.98522
1.0049
1.0246
1.0443
1.0591
1.069
1.0739
1.069
1.0542
1.0296
1
0.96552
0.92611
0.87931
0.8399
0.80542
0.78079
0.75616
0.73892
0.72414
0.71921
0.71921
0.71921
0.72414
0.72906
0.73892
0.74384
0.74384
0.74877
0.74877
0.74877
0.74877
0.74877
0.73892
0.72906
0.72414
0.71921
0.71921
0.71921
0.71429
0.71429
0.71429
0.71429
0.71429
0.70936
0.70936
0.70936
0.71429
0.70936
0.70936
0.71429
0.71429
0.71429
0.71921
0.71921
0.71921
0.72414
0.72414
0.72906
0.74384
0.77586
0.79557
0.80542
0.81527
0.80049
0.75616
0.72414
0.71921
0.73399
0.73892
0.72906
0.71921
0.70443
0.69951
0.69951
0.69951
0.70443
0.70443
0.70443
0.70936
0.71429
0.71921
0.72906
0.80542
1.0345
1.2956
1.335
0.90887
0.38916
0.039409
-0.054187
-0.0049261
0.14039
0.29064
0.38916
0.46059
0.53941
0.65025
0.75616
0.8202
0.84483
0.85961
0.86946
0.87438
0.87931
0.88916
0.89901
0.90394
0.91872
0.93596
0.94581
0.96552
0.98522
1.0049
1.0246
1.0443
1.064
1.069
1.0739
1.064
1.0493
1.0246
0.99507
0.96059
0.91872
0.87931
0.83498
0.80049
0.77094
0.74877
0.73399
0.72414
0.71921
0.71921
0.71921
0.71921
0.71921
0.72414
0.72906
0.73399
0.73892
0.73892
0.73399
0.73399
0.73399
0.72906
0.71921
0.71921
0.71429
0.70443
0.69951
0.69951
0.69951
0.69951
0.69951
0.69951
0.69951
0.69951
0.69951
0.69951
0.69951
0.70443
0.69951
0.69951
0.70443
0.70443
0.70443
0.70443
0.70443
0.71429
0.71921
0.72906
0.75616
0.78079
0.79064
0.80542
0.79557
0.76601
0.72414
0.70936
0.71429
0.72414
0.72414
0.71429
0.69951
0.68966
0.68966
0.69458
0.69458
0.69951
0.69951
0.70443
0.70936
0.70936
0.71429
0.77094
0.94089
1.2143
1.3054
1.0394
0.54926
0.14532
-0.019704
-0.029557
0.11084
0.26601
0.37931
0.45567
0.52463
0.62069
0.72906
0.80542
0.84483
0.85961
0.86946
0.87438
0.87931
0.88916
0.89901
0.90394
0.91379
0.92611
0.94089
0.95567
0.97537
0.99507
1.0148
1.0394
1.0591
1.069
1.0739
1.069
1.0542
1.0296
1.0049
0.97537
0.94089
0.89901
0.85961
0.82512
0.79064
0.76108
0.73892
0.72414
0.71921
0.71921
0.71921
0.71921
0.71921
0.71921
0.72414
0.72906
0.73892
0.74384
0.74384
0.73892
0.73892
0.72906
0.72414
0.71921
0.71429
0.70443
0.70443
0.70443
0.69951
0.69951
0.69951
0.69951
0.69951
0.69951
0.69951
0.69951
0.69951
0.70443
0.70443
0.70443
0.70443
0.70443
0.70443
0.70443
0.70936
0.71429
0.71429
0.71429
0.72414
0.74877
0.77586
0.79064
0.80542
0.80542
0.78079
0.73892
0.71921
0.71921
0.72906
0.73399
0.71921
0.70936
0.69951
0.69458
0.69951
0.69951
0.70443
0.70443
0.70443
0.70936
0.71429
0.71921
0.76108
0.90394
1.1749
1.3054
1.0961
0.62562
0.19458
0.0049261
-0.019704
0.096059
0.24384
0.36453
0.43596
0.5
0.59113
0.70443
0.79557
0.83498
0.85468
0.86453
0.87438
0.87931
0.88424
0.89409
0.90394
0.91379
0.92611
0.94089
0.95567
0.97044
0.99015
1.0148
1.0394
1.0591
1.069
1.0739
1.0739
1.064
1.0443
1.0099
0.97537
0.94089
0.89901
0.85961
0.82512
0.79064
0.76108
0.73892
0.72414
0.71921
0.71429
0.70443
0.70443
0.71429
0.72414
0.72906
0.72906
0.73399
0.73399
0.72906
0.72906
0.72906
0.72906
0.72414
0.71429
0.70936
0.70443
0.69951
0.69458
0.69458
0.69458
0.69458
0.69458
0.69458
0.69458
0.69458
0.69458
0.69458
0.69951
0.69951
0.69951
0.69951
0.69951
0.69951
0.70443
0.70443
0.70443
0.71429
0.73892
0.76601
0.78079
0.79557
0.80542
0.77586
0.72414
0.70443
0.70443
0.71429
0.71921
0.70443
0.69458
0.6798
0.6798
0.6798
0.68473
0.68473
0.68473
0.68473
0.68966
0.69458
0.69951
0.72414
0.84483
1.1158
1.3153
1.1897
0.73892
0.24384
-0.029557
-0.073892
0.014778
0.1798
0.3202
0.40394
0.4803
0.57882
0.69458
0.78571
0.83498
0.84975
0.85961
0.86946
0.87438
0.88424
0.88916
0.89901
0.91379
0.92611
0.93596
0.95567
0.97537
1
1.0246
1.0443
1.064
1.0788
1.0911
1.0911
1.0739
1.0591
1.0296
1
0.96059
0.91872
0.87438
0.83005
0.79557
0.76601
0.73892
0.72414
0.71921
0.71429
0.71429
0.71429
0.71429
0.71921
0.72414
0.72414
0.72906
0.72906
0.72906
0.72414
0.72414
0.71921
0.71429
0.70936
0.70443
0.69951
0.69951
0.69458
0.69458
0.69458
0.69458
0.69458
0.69458
0.69458
0.69458
0.69458
0.69458
0.69458
0.69951
0.69951
0.70443
0.69951
0.69951
0.69951
0.69951
0.69951
0.70443
0.71429
0.73399
0.76108
0.78079
0.78571
0.79064
0.76601
0.72414
0.69951
0.69951
0.71429
0.71921
0.70936
0.69951
0.68473
0.6798
0.68473
0.68966
0.68966
0.69458
0.69458
0.69951
0.69951
0.70443
0.72906
0.8399
1.0961
1.2857
1.1552
0.72906
0.27094
0.024631
-0.019704
0.064039
0.21921
0.34975
0.43103
0.49015
0.57389
0.68473
0.78079
0.83498
0.85468
0.86453
0.87438
0.87931
0.88916
0.89901
0.90394
0.91872
0.93103
0.94581
0.96059
0.97537
0.99507
1.0148
1.0394
1.0591
1.0739
1.0788
1.0788
1.0739
1.0591
1.0345
1.0049
0.97044
0.93103
0.88916
0.84975
0.8202
0.79064
0.76601
0.74877
0.73892
0.73399
0.72906
0.72906
0.73399
0.73892
0.74877
0.76108
0.76601
0.77094
0.76601
0.76108
0.75616
0.74877
0.74384
0.73892
0.73399
0.72414
0.71921
0.71921
0.71921
0.71921
0.71921
0.71921
0.71921
0.72414
0.72414
0.71921
0.71921
0.71921
0.71921
0.71921
0.71921
0.72414
0.72414
0.72414
0.72414
0.72414
0.72414
0.72414
0.73892
0.76108
0.78571
0.80049
0.81034
0.8202
0.80049
0.75616
0.72414
0.71921
0.72906
0.73399
0.72414
0.70936
0.69951
0.69458
0.69458
0.69458
0.69951
0.69951
0.69951
0.69951
0.69951
0.69951
0.71921
0.81034
1.0542
1.3005
1.3251
0.84975
0.3399
0.014778
-0.059113
0.0098522
0.1601
0.30542
0.40394
0.47044
0.55419
0.66995
0.77586
0.83005
0.84975
0.86453
0.87438
0.87931
0.88916
0.89409
0.89901
0.90887
0.91872
0.93596
0.95074
0.96552
0.98522
1.0099
1.0296
1.0493
1.069
1.0788
1.0788
1.069
1.0542
1.0296
1
0.96552
0.92611
0.88424
0.84483
0.81034
0.77586
0.75616
0.73892
0.72906
0.72414
0.71921
0.71921
0.71921
0.72414
0.72414
0.72906
0.72906
0.72906
0.72906
0.72906
0.72414
0.71921
0.71429
0.70936
0.69951
0.69951
0.69951
0.69458
0.68966
0.68966
0.68473
0.68473
0.68473
0.68966
0.68473
0.68966
0.69458
0.69458
0.69458
0.69951
0.69458
0.69458
0.69951
0.69951
0.69951
0.69951
0.69951
0.69951
0.70443
0.71921
0.74384
0.76601
0.78571
0.79064
0.79557
0.76108
0.71921
0.69951
0.70443
0.71921
0.72414
0.71429
0.69951
0.68966
0.68473
0.68966
0.69458
0.69458
0.69951
0.69951
0.70443
0.70936
0.71921
0.76108
0.91872
1.1897
1.3005
1.0591
0.58621
0.16995
-0.0098522
-0.029557
0.096059
0.25123
0.36453
0.44089
0.50985
0.60099
0.71429
0.79557
0.83005
0.84975
0.85961
0.86946
0.87931
0.88424
0.89409
0.90394
0.91379
0.92611
0.93596
0.95074
0.97044
0.99015
1.0099
1.0296
1.0493
1.064
1.069
1.069
1.0542
1.0394
1.0099
0.9803
0.94089
0.89901
0.85961
0.82512
0.79064
0.76601
0.74384
0.72906
0.71921
0.71921
0.71921
0.71921
0.71921
0.72414
0.72906
0.73399
0.73892
0.73892
0.74384
0.73892
0.72906
0.72414
0.71921
0.71429
0.70443
0.70443
0.69951
0.69951
0.69458
0.69951
0.69951
0.69951
0.69951
0.69951
0.69951
0.69951
0.69951
0.70443
0.69951
0.69951
0.70443
0.70443
0.69951
0.69951
0.70443
0.70936
0.71921
0.73399
0.76601
0.78079
0.79557
0.80542
0.78571
0.74384
0.71429
0.71429
0.72414
0.72414
0.71429
0.70443
0.68966
0.68473
0.68473
0.68966
0.68966
0.69458
0.69458
0.69951
0.70443
0.70936
0.72414
0.8202
1.0591
1.2956
1.3103
0.8202
0.33005
0.024631
-0.049261
0.014778
0.16502
0.30542
0.39901
0.46552
0.54926
0.6601
0.76601
0.83005
0.84975
0.86453
0.87438
0.88424
0.89409
0.89901
0.90887
0.91872
0.93103
0.94089
0.95567
0.97537
0.99507
1.0099
1.0345
1.0542
1.069
1.0788
1.0837
1.0739
1.0542
1.0296
1
0.96552
0.93103
0.88424
0.84483
0.81034
0.78079
0.75616
0.73892
0.72414
0.72414
0.72414
0.72414
0.72414
0.72414
0.72906
0.73399
0.73892
0.73399
0.73399
0.72906
0.72414
0.71921
0.71429
0.70443
0.69951
0.69951
0.68966
0.68473
0.68473
0.68473
0.68473
0.68473
0.68473
0.68473
0.68966
0.68966
0.69458
0.69458
0.69458
0.69458
0.69951
0.69951
0.69951
0.69951
0.69951
0.71429
0.73892
0.76601
0.78079
0.79064
0.79557
0.76601
0.71921
0.69951
0.70443
0.71429
0.71429
0.70443
0.69458
0.6798
0.6798
0.6798
0.68473
0.68966
0.69458
0.69951
0.69951
0.69951
0.70443
0.73399
0.85468
1.1207
1.3005
1.1552
0.69951
0.23399
-0.014778
-0.049261
0.039409
0.19951
0.33498
0.42118
0.48522
0.57882
0.69458
0.78571
0.83498
0.85468
0.86946
0.87931
0.88916
0.89409
0.89901
0.91379
0.92611
0.93596
0.94581
0.96059
0.9803
1
1.0246
1.0443
1.064
1.0788
1.0837
1.0911
1.0739
1.0591
1.0296
1
0.96552
0.92611
0.87931
0.83498
0.80049
0.77586
0.74877
0.73892
0.72414
0.71921
0.71921
0.71921
0.72414
0.72414
0.72906
0.73399
0.73399
0.73892
0.73892
0.73892
0.73892
0.72906
0.71921
0.71429
0.70936
0.70443
0.69951
0.69458
0.69458
0.68966
0.69458
0.69458
0.69458
0.68966
0.68966
0.68966
0.69458
0.69458
0.69951
0.69951
0.69951
0.70443
0.70443
0.70936
0.71429
0.72414
0.74384
0.77094
0.78571
0.79557
0.79064
0.76108
0.72414
0.70443
0.71429
0.71921
0.72414
0.71429
0.69951
0.69458
0.69458
0.69458
0.69458
0.69951
0.69951
0.69951
0.70443
0.70443
0.71429
0.74384
0.87931
1.1502
1.2956
1.0961
0.63547
0.20443
0.0049261
-0.019704
0.086207
0.23892
0.35961
0.43596
0.5
0.59113
0.69951
0.79064
0.83498
0.85468
0.86946
0.87438
0.88916
0.89409
0.90394
0.90887
0.91379
0.92611
0.94089
0.95567
0.97537
0.99507
1.0148
1.0345
1.0542
1.069
1.0788
1.0739
1.069
1.0443
1.0197
0.98522
0.94581
0.90887
0.86946
0.83005
0.80049
0.76601
0.74384
0.72906
0.72414
0.71921
0.71921
0.71921
0.72414
0.72906
0.73399
0.73892
0.74384
0.74877
0.74877
0.74384
0.73892
0.72906
0.72414
0.71921
0.71921
0.71429
0.70936
0.70936
0.70936
0.70936
0.70936
0.70936
0.70936
0.70936
0.70443
0.70443
0.70443
0.70936
0.71429
0.71429
0.71429
0.71429
0.71429
0.71921
0.71921
0.71921
0.71921
0.73399
0.76108
0.78079
0.79557
0.80542
0.79557
0.76601
0.72414
0.70936
0.71429
0.72414
0.71921
0.70443
0.69458
0.68473
0.68473
0.68966
0.69458
0.69458
0.69458
0.69951
0.69951
0.70443
0.71429
0.76108
0.93596
1.2192
1.3251
1.0591
0.54926
0.12562
-0.049261
-0.059113
0.091133
0.25123
0.36453
0.44089
0.51478
0.62562
0.73892
0.81527
0.84975
0.86453
0.87438
0.87931
0.88424
0.89409
0.89901
0.91379
0.92611
0.94089
0.95074
0.96552
0.98522
1.0049
1.0246
1.0493
1.069
1.0788
1.0911
1.0788
1.069
1.0443
1.0197
0.9803
0.94089
0.89901
0.85961
0.82512
0.79064
0.76601
0.74384
0.73399
0.72414
0.71921
0.71921
0.71921
0.72414
0.72414
0.72906
0.72906
0.73399
0.73892
0.73399
0.72906
0.72414
0.72414
0.71921
0.71429
0.70936
0.70443
0.70443
0.69951
0.69458
0.69458
0.69458
0.69458
0.69951
0.69951
0.69458
0.69458
0.69458
0.69951
0.69951
0.69951
0.69458
0.69458
0.69458
0.69458
0.69951
0.69951
0.69951
0.70936
0.73399
0.76108
0.78079
0.79064
0.79557
0.77586
0.73399
0.70443
0.70936
0.71921
0.72414
0.71429
0.70443
0.69458
0.69458
0.69458
0.69458
0.69951
0.70443
0.70443
0.70443
0.70936
0.71429
0.74384
0.85468
1.1059
1.3054
1.1798
0.74877
0.28571
0.024631
-0.019704
0.059113
0.20936
0.34483
0.43103
0.49015
0.57389
0.68966
0.78571
0.83498
0.85468
0.86946
0.87931
0.88916
0.89409
0.90394
0.91379
0.92611
0.94089
0.95074
0.96552
0.9803
1
1.0197
1.0443
1.0591
1.069
1.0788
1.0788
1.0739
1.0493
1.0246
0.99507
0.96059
0.91872
0.87931
0.83498
0.80049
0.77586
0.75616
0.73892
0.72414
0.71921
0.71921
0.71921
0.72414
0.72906
0.72906
0.72906
0.73399
0.73399
0.73399
0.73399
0.73399
0.72906
0.71921
0.71429
0.70443
0.70443
0.70443
0.69951
0.69951
0.69951
0.69951
0.69458
0.69458
0.69458
0.69951
0.69951
0.69951
0.70443
0.70443
0.70443
0.70443
0.70443
0.70443
0.70443
0.70936
0.70936
0.71429
0.72414
0.74877
0.77586
0.79064
0.80049
0.80542
0.76601
0.72414
0.70936
0.71921
0.72906
0.73399
0.71921
0.70443
0.69458
0.69458
0.69458
0.69951
0.69951
0.70443
0.70936
0.70936
0.71429
0.71921
0.74877
0.88916
1.165
1.3251
1.1305
0.65025
0.18473
-0.029557
-0.049261
0.059113
0.21921
0.34975
0.42611
0.49507
0.59606
0.70936
0.80049
0.84483
0.85961
0.86946
0.87931
0.88424
0.89409
0.89901
0.91379
0.92611
0.93596
0.94581
0.96552
0.98522
1.0049
1.0246
1.0493
1.069
1.0837
1.0911
1.0961
1.0788
1.0591
1.0296
0.99507
0.95567
0.91379
0.87438
0.83498
0.80542
0.78079
0.75616
0.73892
0.72906
0.72414
0.72414
0.71921
0.72414
0.72906
0.72906
0.72906
0.73399
0.73399
0.72906
0.72906
0.72414
0.71921
0.71429
0.71429
0.70443
0.69951
0.69951
0.69458
0.69458
0.69458
0.68966
0.69458
0.69458
0.69458
0.69458
0.69458
0.69951
0.69951
0.69951
0.69951
0.69951
0.69951
0.69458
0.69458
0.69951
0.69951
0.69951
0.71429
0.73892
0.76601
0.78079
0.79064
0.79557
0.76601
0.72414
0.69951
0.70443
0.71429
0.71921
0.70443
0.69458
0.68473
0.68473
0.68966
0.69458
0.69458
0.69458
0.69951
0.69951
0.70443
0.70936
0.73892
0.85961
1.1256
1.3103
1.1502
0.69458
0.23399
-0.0049261
-0.039409
0.049261
0.20936
0.34483
0.42611
0.49015
0.57882
0.69458
0.79064
0.83498
0.85468
0.86453
0.87438
0.87931
0.88916
0.89409
0.89901
0.91379
0.92611
0.94089
0.95074
0.96552
0.99015
1.0148
1.0345
1.0542
1.069
1.0739
1.0788
1.069
1.0493
1.0197
0.99015
0.95567
0.91379
0.87438
0.83005
0.79557
0.76601
0.74384
0.72906
0.72414
0.71921
0.71429
0.71429
0.71429
0.71429
0.72414
0.72906
0.73892
0.73892
0.73399
0.72906
0.72414
0.72414
0.71921
0.71429
0.70443
0.70443
0.69951
0.69458
0.69458
0.69458
0.69458
0.69458
0.69458
0.69458
0.69458
0.69458
0.69458
0.69951
0.69458
0.69458
0.69951
0.69951
0.69951
0.69951
0.70443
0.70443
0.71429
0.72414
0.75616
0.78079
0.79064
0.80542
0.80542
0.78079
0.73399
0.70936
0.71429
0.72414
0.72906
0.71921
0.70443
0.69458
0.68966
0.69458
0.69458
0.69458
0.69951
0.70443
0.70443
0.70936
0.71921
0.74384
0.86946
1.1355
1.3202
1.1601
0.69951
0.22414
-0.014778
-0.044335
0.049261
0.20936
0.3399
0.42611
0.49015
0.57882
0.69951
0.79557
0.84483
0.86453
0.87438
0.87931
0.88916
0.89409
0.90394
0.91379
0.92611
0.93596
0.94581
0.96552
0.98522
1.0049
1.0246
1.0493
1.069
1.0837
1.0911
1.0961
1.0788
1.0591
1.0296
1
0.96059
0.91872
0.88424
0.8399
0.80542
0.78079
0.76108
0.74384
0.72906
0.72414
0.72414
0.72414
0.72414
0.72906
0.72906
0.73892
0.73892
0.73892
0.73892
0.73399
0.72906
0.72906
0.72414
0.71921
0.71429
0.70443
0.69951
0.69951
0.69458
0.69458
0.69458
0.69458
0.69458
0.69458
0.69458
0.69951
0.69951
0.69951
0.69951
0.69951
0.69951
0.69951
0.69951
0.70443
0.70443
0.70443
0.70443
0.71429
0.73399
0.76108
0.78079
0.79064
0.80049
0.78079
0.73892
0.70936
0.70443
0.71429
0.71921
0.71429
0.70443
0.68966
0.68473
0.68473
0.69458
0.69458
0.69951
0.69951
0.69951
0.69951
0.70936
0.72414
0.8202
1.0493
1.2808
1.2956
0.83005
0.3399
0.029557
-0.044335
0.024631
0.16995
0.31527
0.40887
0.47044
0.55419
0.67488
0.77586
0.83005
0.84975
0.86946
0.87438
0.87931
0.88916
0.89409
0.90394
0.91379
0.92611
0.94089
0.95074
0.96552
0.99015
1.0099
1.0296
1.0493
1.069
1.0788
1.0837
1.0739
1.0591
1.0296
1
0.96552
0.92611
0.88424
0.84483
0.81034
0.77586
0.75616
0.73892
0.72414
0.71921
0.71921
0.71921
0.71921
0.71921
0.72414
0.72906
0.72906
0.73399
0.73892
0.73892
0.72906
0.72906
0.72414
0.71429
0.70936
0.70443
0.69951
0.69458
0.69458
0.69458
0.69458
0.69458
0.69458
0.69458
0.69458
0.69458
0.69458
0.69458
0.69458
0.69458
0.69458
0.69458
0.69458
0.69951
0.69951
0.69951
0.70443
0.71429
0.73892
0.76601
0.78079
0.79064
0.78571
0.75616
0.71429
0.69458
0.69951
0.70936
0.70443
0.69458
0.68473
0.6798
0.6798
0.68473
0.68473
0.68473
0.68966
0.68966
0.69458
0.69951
0.69951
0.73892
0.89409
1.1601
1.2857
1.064
0.59606
0.17488
-0.0098522
-0.024631
0.096059
0.25123
0.36453
0.44089
0.50493
0.60099
0.71429
0.80542
0.84483
0.85961
0.87438
0.87931
0.88916
0.88916
0.89409
0.90394
0.91379
0.92611
0.94089
0.95074
0.97044
0.99015
1.0099
1.0296
1.0493
1.069
1.0739
1.0739
1.064
1.0443
1.0197
0.98522
0.94581
0.90394
0.85961
0.8202
0.78571
0.76108
0.74384
0.72906
0.71921
0.71921
0.71921
0.71429
0.71429
0.71921
0.71921
0.72906
0.73399
0.73892
0.73892
0.74384
0.73892
0.72906
0.72414
0.72414
0.71921
0.71429
0.70936
0.70936
0.70936
0.70443
0.70443
0.70443
0.70443
0.70443
0.70443
0.70443
0.70443
0.70443
0.69951
0.69951
0.69951
0.70443
0.70443
0.70443
0.70443
0.70443
0.71429
0.73399
0.76108
0.78079
0.79064
0.80049
0.78571
0.74384
0.70936
0.70443
0.71429
0.72414
0.71429
0.70443
0.69458
0.68473
0.68966
0.69458
0.69458
0.69951
0.69951
0.69951
0.70443
0.70443
0.71921
0.79064
0.99507
1.266
1.3251
0.95074
0.43596
0.054187
-0.068966
-0.024631
0.12562
0.28079
0.38424
0.45567
0.53941
0.65517
0.76601
0.82512
0.84975
0.86946
0.87438
0.87931
0.87931
0.88916
0.89901
0.90887
0.91872
0.93596
0.94581
0.96552
0.98522
1.0049
1.0246
1.0443
1.064
1.0788
1.0788
1.0739
1.0591
1.0296
1.0049
0.97044
0.93103
0.88916
0.84483
0.81034
0.77586
0.74384
0.72906
0.71429
0.70936
0.70936
0.70443
0.70443
0.71429
0.71921
0.71921
0.72414
0.72906
0.72906
0.72906
0.72906
0.72414
0.72414
0.71921
0.70936
0.70443
0.70443
0.69951
0.69458
0.69458
0.69458
0.68966
0.68966
0.68966
0.69458
0.69458
0.69458
0.69458
0.69458
0.69458
0.69951
0.69458
0.69458
0.69458
0.69951
0.70443
0.71921
0.74877
0.77094
0.78079
0.79064
0.78079
0.74384
0.70936
0.69951
0.70936
0.71921
0.71429
0.69951
0.68473
0.67488
0.6798
0.6798
0.68473
0.68473
0.68473
0.69458
0.69951
0.69951
0.70936
0.77094
0.95074
1.2143
1.2857
0.96059
0.47537
0.10099
-0.034483
-0.039409
0.12069
0.27586
0.38424
0.45074
0.52463
0.62562
0.73399
0.81034
0.8399
0.85468
0.85961
0.86946
0.87438
0.87931
0.89409
0.89901
0.90887
0.91872
0.93596
0.95074
0.97537
0.99507
1.0148
1.0394
1.0542
1.069
1.0739
1.069
1.0542
1.0296
1
0.97044
0.93596
0.89409
0.84975
0.8202
0.78571
0.76108
0.73892
0.72414
0.71921
0.71921
0.71921
0.71921
0.71921
0.72414
0.72906
0.73892
0.73892
0.73892
0.73892
0.73399
0.72906
0.72906
0.72414
0.71921
0.71429
0.70443
0.70443
0.69951
0.69951
0.69951
0.69951
0.69951
0.70443
0.69951
0.69951
0.70443
0.70443
0.70443
0.70443
0.70443
0.70443
0.70443
0.70443
0.70443
0.70936
0.71921
0.74384
0.77094
0.78571
0.80049
0.80542
0.76601
0.71921
0.70443
0.70936
0.71921
0.71429
0.70443
0.68966
0.6798
0.6798
0.6798
0.6798
0.68473
0.68473
0.68966
0.69458
0.69458
0.69951
0.73892
0.88424
1.17
1.3103
1.101
0.61084
0.15025
-0.049261
-0.068966
0.064039
0.22414
0.34975
0.42611
0.5
0.60099
0.71429
0.80049
0.83498
0.85468
0.85961
0.86946
0.87438
0.87931
0.88916
0.89901
0.90887
0.91872
0.93596
0.95074
0.96552
0.98522
1.0099
1.0345
1.0542
1.069
1.0739
1.0739
1.064
1.0443
1.0148
0.98522
0.94581
0.89901
0.86453
0.82512
0.78571
0.75616
0.73892
0.72414
0.71921
0.71921
0.71429
0.71429
0.71429
0.71921
0.72414
0.72906
0.73399
0.73892
0.73399
0.72906
0.72906
0.72414
0.72414
0.71921
0.71429
0.70443
0.70443
0.69951
0.69951
0.69951
0.69951
0.69458
0.69458
0.69458
0.69951
0.69951
0.69951
0.69951
0.69951
0.70443
0.69951
0.69951
0.70443
0.70443
0.70443
0.70443
0.71429
0.73399
0.76108
0.77586
0.78571
0.79557
0.78079
0.74384
0.70936
0.70443
0.71429
0.71921
0.71429
0.70443
0.69458
0.68473
0.68966
0.69458
0.69458
0.69951
0.69951
0.70443
0.70443
0.71429
0.72414
0.81034
1.0345
1.2709
1.3005
0.85961
0.37438
0.049261
-0.029557
0.024631
0.16995
0.31527
0.41379
0.47537
0.55419
0.6601
0.76108
0.82512
0.84975
0.85961
0.86946
0.87438
0.87931
0.89409
0.89901
0.90394
0.91872
0.93103
0.94089
0.96059
0.9803
1
1.0246
1.0443
1.064
1.0739
1.0788
1.069
1.0542
1.0296
1.0049
0.97044
0.93596
0.89409
0.84975
0.81527
0.78571
0.76108
0.74384
0.72906
0.72414
0.72414
0.71921
0.72414
0.72906
0.73399
0.74384
0.74877
0.74877
0.74877
0.74877
0.74877
0.74384
0.73892
0.72906
0.71921
0.71921
0.71429
0.71429
0.70936
0.70443
0.70443
0.70443
0.70936
0.71429
0.71429
0.71429
0.71429
0.71429
0.71429
0.71429
0.71429
0.71429
0.71429
0.71429
0.71921
0.73399
0.76601
0.78571
0.79557
0.81034
0.82512
0.79064
0.73892
0.69951
0.69458
0.70936
0.71429
0.71921
0.70936
0.69951
0.69458
0.69458
0.69458
0.69951
0.70443
0.70443
0.70443
0.70443
0.71429
0.74384
0.88424
1.1601
1.3103
1.0961
0.62562
0.18473
-0.014778
-0.039409
0.068966
0.22906
0.35468
0.43103
0.49507
0.59113
0.70443
0.80049
0.84483
0.86453
0.87438
0.88424
0.88916
0.89901
0.90394
0.91379
0.92611
0.94089
0.95074
0.96552
0.99015
1.0099
1.0296
1.0591
1.0739
1.0911
1.0961
1.101
1.0788
1.0591
1.0296
0.99507
0.95567
0.90887
0.86946
0.83005
0.79557
0.76601
0.74877
0.73892
0.72414
0.71921
0.71921
0.71921
0.72414
0.72414
0.72906
0.73892
0.74384
0.74877
0.74877
0.74877
0.74384
0.73892
0.73399
0.72414
0.71921
0.71921
0.71429
0.71429
0.70936
0.70443
0.69951
0.69458
0.68473
0.68473
0.68473
0.68966
0.68966
0.68966
0.68473
0.68473
0.6798
0.67488
0.66995
0.6601
0.65025
0.63054
0.62069
0.62069
0.63547
0.6601
0.6798
0.69458
0.69951
0.67488
0.64532
0.64039
0.65517
0.66995
0.67488
0.66995
0.66502
0.6601
0.66502
0.6798
0.69951
0.72414
0.74877
0.78571
0.8202
0.85961
0.90394
0.97537
1.1601
1.4803
1.6502
1.4557
0.97537
0.50493
0.26601
0.22906
0.3202
0.47044
0.57882
0.65025
0.70443
0.79557
0.89409
0.96552
0.98522
0.99015
0.99015
0.98522
0.9803
0.97537
0.97044
0.97044
0.97044
0.97044
0.9803
0.98522
0.99507
1.0099
1.0296
1.0493
1.064
1.069
1.069
1.064
1.0443
1.0148
0.9803
0.94581
0.90394
0.86453
0.8202
0.78079
0.74384
0.70936
0.68473
0.66502
0.6601
0.65517
0.65517
0.65517
0.65517
0.6601
0.66502
0.66995
0.66995
0.67488
0.67488
0.67488
0.67488
0.66502
0.6601
0.65025
0.65025
0.64039
0.64039
0.63547
0.63547
0.63547
0.63547
0.63547
0.64039
0.64039
0.63547
0.63547
0.64039
0.64039
0.64532
0.65025
0.65025
0.65025
0.65517
0.65517
0.6601
0.6601
0.66502
0.68473
0.70936
0.72414
0.74384
0.75616
0.74384
0.71429
0.67488
0.66502
0.67488
0.68473
0.6798
0.66995
0.6601
0.65517
0.65517
0.6601
0.66502
0.66502
0.66502
0.66502
0.66502
0.67488
0.6798
0.73892
0.93103
1.1946
1.2611
0.95074
0.47537
0.096059
-0.044335
-0.014778
0.11084
0.25616
0.35961
0.43103
0.5
0.60099
0.70443
0.78079
0.81527
0.83005
0.84483
0.85468
0.85961
0.86946
0.87438
0.88424
0.89901
0.91379
0.93103
0.94581
0.96552
0.99015
1.0148
1.0394
1.0542
1.064
1.0739
1.069
1.0591
1.0394
1.0099
0.97537
0.93596
0.88916
0.84975
0.81034
0.78079
0.75616
0.73892
0.72414
0.71429
0.70936
0.70936
0.71429
0.71429
0.71921
0.72414
0.72906
0.73892
0.74384
0.74384
0.74384
0.73892
0.72906
0.71921
0.71429
0.70443
0.69951
0.69951
0.69951
0.69458
0.69458
0.69458
0.69458
0.69458
0.69458
0.69458
0.69458
0.69951
0.69951
0.69951
0.70443
0.71429
0.71429
0.71429
0.71429
0.71429
0.71921
0.71921
0.72414
0.73892
0.76601
0.79064
0.80542
0.81527
0.81034
0.78079
0.73399
0.71429
0.71921
0.73399
0.73892
0.72414
0.70936
0.69458
0.69458
0.69458
0.69951
0.69951
0.69951
0.70443
0.70936
0.70443
0.70936
0.74877
0.89901
1.1897
1.33
1.1108
0.60591
0.15025
-0.049261
-0.073892
0.054187
0.21429
0.3399
0.42118
0.49015
0.59113
0.69951
0.78571
0.82512
0.84483
0.85468
0.85961
0.86946
0.87931
0.88916
0.89409
0.90394
0.91379
0.93103
0.94089
0.96059
0.98522
1.0099
1.0296
1.0493
1.064
1.069
1.0739
1.064
1.0394
1.0099
0.9803
0.94581
0.90394
0.86453
0.82512
0.78571
0.76108
0.73892
0.72906
0.71921
0.71429
0.71429
0.71429
0.71429
0.71429
0.71921
0.72414
0.72906
0.72906
0.72906
0.72906
0.72414
0.71921
0.71429
0.71429
0.70443
0.69951
0.69458
0.69458
0.68966
0.68473
0.68473
0.68473
0.68473
0.68966
0.68966
0.68966
0.68966
0.68966
0.68473
0.68473
0.6798
0.67488
0.66995
0.66502
0.6601
0.6601
0.6601
0.66995
0.69458
0.71429
0.72906
0.73892
0.74384
0.70936
0.66995
0.64532
0.65025
0.66502
0.66502
0.6601
0.65025
0.64039
0.64532
0.6601
0.67488
0.68966
0.69951
0.70443
0.69951
0.69951
0.70443
0.74384
0.89409
1.17
1.3251
1.1404
0.68966
0.24384
0.029557
0.0049261
0.12069
0.28079
0.40394
0.4803
0.54433
0.64039
0.75616
0.84975
0.89409
0.91379
0.93103
0.94089
0.94581
0.95567
0.96059
0.97044
0.97537
0.9803
0.99015
1
1.0197
1.0394
1.0542
1.0739
1.0911
1.1059
1.1158
1.1059
1.0911
1.064
1.0345
1
0.96059
0.91872
0.88424
0.84483
0.81034
0.78571
0.77094
0.75616
0.74384
0.73892
0.73892
0.73892
0.73892
0.73892
0.74384
0.73892
0.74384
0.74384
0.74384
0.73892
0.73399
0.72906
0.71921
0.71429
0.70443
0.69951
0.69458
0.69458
0.69458
0.69458
0.69458
0.69458
0.69951
0.70443
0.70443
0.70443
0.70936
0.71429
0.71429
0.71429
0.71921
0.71921
0.72414
0.72414
0.72414
0.72414
0.72414
0.73892
0.76601
0.79064
0.80542
0.81527
0.80542
0.76601
0.72906
0.71921
0.72906
0.73892
0.73399
0.72414
0.70936
0.69951
0.69951
0.70443
0.70936
0.71429
0.71921
0.71921
0.72414
0.72906
0.73892
0.78571
0.96059
1.234
1.33
1.0591
0.56404
0.14039
-0.029557
-0.044335
0.10099
0.25123
0.36453
0.43596
0.50493
0.60591
0.71429
0.79557
0.83005
0.84975
0.85961
0.85961
0.86946
0.87438
0.87931
0.89409
0.89901
0.91379
0.93103
0.95074
0.97537
0.99507
1.0197
1.0443
1.064
1.0788
1.0911
1.0837
1.069
1.0493
1.0197
0.98522
0.94581
0.90887
0.86453
0.83005
0.80049
0.77586
0.75616
0.74384
0.73399
0.72906
0.72414
0.72414
0.72414
0.72906
0.73399
0.73892
0.74384
0.74877
0.74384
0.73892
0.73399
0.72906
0.71921
0.71429
0.70443
0.69951
0.69458
0.69458
0.68473
0.68473
0.68473
0.68473
0.68473
0.68473
0.68966
0.68966
0.69458
0.69458
0.69458
0.69951
0.69951
0.69951
0.69951
0.69951
0.69951
0.70443
0.71429
0.72414
0.75616
0.78079
0.79064
0.80542
0.79064
0.75616
0.71429
0.70443
0.71429
0.72414
0.71921
0.70936
0.69951
0.69458
0.69458
0.69458
0.69951
0.69951
0.69951
0.69951
0.70443
0.70936
0.72414
0.79557
1
1.266
1.3251
0.96059
0.46552
0.096059
-0.029557
0.0049261
0.14039
0.28571
0.39409
0.46552
0.53448
0.64532
0.74877
0.8202
0.84975
0.86946
0.87438
0.87931
0.88916
0.89901
0.90394
0.91379
0.92611
0.94089
0.95074
0.96552
0.98522
1.0099
1.0296
1.0542
1.0739
1.0911
1.0961
1.0911
1.0739
1.0493
1.0197
0.98522
0.94581
0.89901
0.86453
0.82512
0.79557
0.77094
0.74877
0.73399
0.72906
0.72414
0.72414
0.72414
0.72414
0.72906
0.72906
0.72906
0.73399
0.73892
0.73892
0.73399
0.72906
0.72414
0.71921
0.71429
0.70936
0.70443
0.69951
0.69951
0.69951
0.69458
0.69458
0.69458
0.69458
0.69951
0.69951
0.69951
0.69951
0.70443
0.70443
0.70443
0.70936
0.71429
0.71429
0.71429
0.71429
0.72414
0.73892
0.76601
0.78571
0.79557
0.80542
0.79064
0.74877
0.70936
0.70443
0.71429
0.72414
0.71429
0.70443
0.69458
0.68473
0.68473
0.68966
0.69458
0.69458
0.69951
0.70443
0.70936
0.71429
0.72414
0.79557
1
1.2611
1.3153
0.95567
0.47044
0.10591
-0.014778
-0.019704
0.14532
0.29064
0.39409
0.46059
0.52956
0.64039
0.74877
0.82512
0.85468
0.86946
0.87438
0.87931
0.89409
0.89901
0.90887
0.91872
0.93103
0.94089
0.95567
0.97537
0.99507
1.0148
1.0394
1.0591
1.0739
1.0961
1.101
1.0961
1.0788
1.0591
1.0296
0.99507
0.95074
0.90394
0.86453
0.82512
0.79064
0.77094
0.74877
0.72906
0.72414
0.72414
0.72414
0.72414
0.72906
0.72906
0.73892
0.73892
0.74384
0.74877
0.74877
0.74877
0.74384
0.73892
0.72906
0.72414
0.72414
0.71921
0.71429
0.71429
0.71429
0.70936
0.70936
0.70443
0.70443
0.70443
0.70936
0.70936
0.71429
0.71429
0.71429
0.71429
0.71429
0.71921
0.71429
0.71429
0.71921
0.73399
0.76108
0.78079
0.79064
0.80542
0.79064
0.75616
0.71429
0.69951
0.70936
0.71921
0.71429
0.69951
0.68473
0.67488
0.67488
0.6798
0.6798
0.68473
0.68966
0.69458
0.69458
0.69951
0.70443
0.75616
0.93103
1.2192
1.335
1.0739
0.55419
0.11084
-0.068966
-0.083744
0.059113
0.21921
0.3399
0.42611
0.49507
0.60591
0.71921
0.80049
0.83498
0.85468
0.86946
0.87438
0.87931
0.89409
0.89901
0.91379
0.92611
0.94089
0.95074
0.96552
0.98522
1.0099
1.0394
1.064
1.0837
1.0961
1.101
1.101
1.0837
1.0591
1.0296
0.99507
0.95567
0.91379
0.86946
0.83005
0.80049
0.77094
0.74877
0.73892
0.72906
0.72414
0.71921
0.71921
0.71921
0.72414
0.72414
0.72906
0.72906
0.73399
0.72906
0.72906
0.72414
0.71921
0.71429
0.70443
0.69951
0.69458
0.68473
0.68473
0.6798
0.6798
0.6798
0.68473
0.68473
0.68966
0.69458
0.69951
0.70443
0.70443
0.70443
0.70443
0.69951
0.69951
0.69951
0.69458
0.69458
0.70936
0.72906
0.74877
0.76601
0.77094
0.76108
0.72414
0.69458
0.68473
0.69458
0.69951
0.69458
0.68473
0.67488
0.66502
0.66502
0.67488
0.67488
0.6798
0.68473
0.69458
0.69951
0.71429
0.72414
0.77586
0.95074
1.2143
1.3153
1.064
0.58621
0.16995
-0.0049261
-0.019704
0.11576
0.26601
0.38424
0.45567
0.52463
0.62069
0.72906
0.80542
0.84483
0.85961
0.86946
0.87931
0.88424
0.88916
0.89901
0.90394
0.91872
0.93103
0.94581
0.96059
0.9803
1.0049
1.0246
1.0443
1.064
1.0739
1.0788
1.0837
1.0739
1.0542
1.0246
0.99015
0.95074
0.90394
0.85961
0.8202
0.79064
0.76601
0.74384
0.72906
0.71921
0.71429
0.70936
0.71429
0.71921
0.72414
0.72414
0.73399
0.73892
0.74384
0.74384
0.73892
0.73892
0.73399
0.72906
0.72414
0.71921
0.71921
0.71429
0.70936
0.70443
0.70443
0.70443
0.70443
0.70936
0.70936
0.70443
0.70443
0.70443
0.71429
0.71429
0.71429
0.71429
0.71429
0.71429
0.71429
0.71921
0.72906
0.75616
0.78079
0.79064
0.80049
0.80542
0.77586
0.72414
0.69951
0.70443
0.71921
0.72414
0.70936
0.69951
0.68473
0.68473
0.68473
0.68966
0.68966
0.69458
0.69458
0.69951
0.70443
0.71429
0.73399
0.84975
1.1256
1.3399
1.2143
0.75616
0.25616
-0.014778
-0.068966
0.014778
0.1798
0.3202
0.40887
0.47537
0.56897
0.68473
0.78079
0.83005
0.84975
0.85961
0.87438
0.87931
0.88916
0.89409
0.90394
0.91379
0.93103
0.94089
0.96059
0.9803
1.0049
1.0246
1.0493
1.069
1.0788
1.0911
1.0961
1.0911
1.064
1.0394
1.0049
0.96552
0.92611
0.88424
0.8399
0.80542
0.77586
0.76108
0.74384
0.73892
0.73399
0.72906
0.72906
0.72414
0.72414
0.72906
0.72906
0.73892
0.74384
0.74877
0.73892
0.73399
0.72906
0.72414
0.71921
0.71429
0.70443
0.69951
0.69458
0.69458
0.69458
0.69951
0.69458
0.69458
0.69951
0.71921
0.74384
0.76108
0.77094
0.78571
0.79064
0.74877
0.70443
0.6798
0.6798
0.69458
0.69951
0.69951
0.68473
0.67488
0.66995
0.67488
0.67488
0.6798
0.6798
0.68473
0.68966
0.69458
0.68966
0.72414
0.86453
1.1305
1.2808
1.101
0.63547
0.18473
-0.034483
-0.068966
0.034483
0.19458
0.32512
0.40887
0.4803
0.58621
0.70443
0.79557
0.83498
0.85468
0.86946
0.87438
0.87931
0.88916
0.89409
0.89901
0.91379
0.92611
0.94581
0.96552
0.98522
1.0049
1.0345
1.0591
1.0788
1.0961
1.101
1.1059
1.0911
1.0591
1.0246
0.99015
0.94581
0.89901
0.85468
0.8202
0.78079
0.75616
0.72906
0.71921
0.71429
0.71429
0.71429
0.71429
0.71429
0.71921
0.71921
0.72414
0.72906
0.73892
0.73399
0.72906
0.72414
0.72414
0.71921
0.71429
0.71429
0.70936
0.70443
0.70443
0.70443
0.70443
0.70443
0.70443
0.69951
0.69951
0.69951
0.70443
0.70443
0.69951
0.69951
0.69951
0.70443
0.69951
0.69951
0.69951
0.69951
0.69951
0.69951
0.69951
0.70443
0.70443
0.70443
0.70443
0.70936
0.71921
0.73892
0.76601
0.78079
0.79064
0.80049
0.78079
0.73399
0.69951
0.69458
0.71429
0.72414
0.72414
0.71921
0.70443
0.69951
0.69951
0.70443
0.70936
0.70936
0.70936
0.71429
0.71429
0.71429
0.74384
0.87438
1.1453
1.3251
1.1552
0.68473
0.21921
0
-0.034483
0.054187
0.19458
0.3202
0.40394
0.47537
0.56404
0.6798
0.78571
0.83498
0.85468
0.86453
0.87438
0.88916
0.89409
0.90394
0.90887
0.91872
0.93103
0.94581
0.96059
0.9803
1.0049
1.0296
1.0493
1.064
1.0788
1.0911
1.0961
1.0837
1.064
1.0394
1.0049
0.96552
0.92611
0.88424
0.84483
0.81034
0.78571
0.76601
0.74877
0.73892
0.72906
0.72906
0.72906
0.72906
0.72906
0.72414
0.72414
0.72414
0.72414
0.72414
0.72414
0.71921
0.71429
0.70443
0.70443
0.69951
0.69458
0.68966
0.68473
0.68473
0.68473
0.68473
0.68473
0.68966
0.68966
0.69458
0.69458
0.69458
0.69458
0.69458
0.69458
0.69951
0.69951
0.69951
0.69951
0.69951
0.70443
0.70443
0.70443
0.70443
0.70443
0.70936
0.70936
0.72414
0.74877
0.77094
0.78079
0.79064
0.79064
0.76108
0.71429
0.68473
0.68966
0.69951
0.70443
0.69951
0.69458
0.6798
0.6798
0.68473
0.69458
0.69458
0.69458
0.69951
0.69951
0.69951
0.71429
0.77094
0.94581
1.2192
1.3054
1.0246
0.52956
0.12562
-0.034483
-0.049261
0.091133
0.24384
0.35468
0.43103
0.5
0.61084
0.71921
0.80049
0.83005
0.84975
0.85468
0.86453
0.86946
0.87931
0.88916
0.89409
0.90394
0.91872
0.93596
0.95567
0.97537
0.99507
1.0197
1.0443
1.064
1.0788
1.0911
1.0911
1.0739
1.0542
1.0246
0.99015
0.95074
0.90887
0.86946
0.83005
0.80049
0.77094
0.74384
0.72906
0.72414
0.71921
0.71921
0.71921
0.71921
0.72414
0.72414
0.72906
0.72906
0.73399
0.73892
0.73892
0.73892
0.73399
0.72906
0.72414
0.71921
0.71921
0.71429
0.71429
0.70936
0.70936
0.70936
0.70936
0.71429
0.71429
0.71429
0.71921
0.71921
0.71921
0.71921
0.71921
0.71921
0.71921
0.72414
0.72414
0.72414
0.72906
0.73892
0.76108
0.78571
0.80542
0.81527
0.81527
0.78571
0.74384
0.72414
0.72414
0.74384
0.73892
0.72906
0.71429
0.70443
0.70443
0.70936
0.71429
0.71921
0.71921
0.72414
0.72906
0.72906
0.73892
0.77094
0.91379
1.1847
1.3153
1.1059
0.63547
0.20443
0.0049261
-0.019704
0.091133
0.24384
0.36453
0.44089
0.5
0.59606
0.71429
0.80542
0.84483
0.86453
0.87931
0.88424
0.89409
0.90394
0.91379
0.92611
0.93103
0.94089
0.95074
0.96552
0.99015
1.0148
1.0394
1.064
1.0911
1.1108
1.1158
1.1158
1.101
1.0739
1.0443
1.0099
0.97044
0.91872
0.86946
0.82512
0.79064
0.76601
0.74384
0.72906
0.72414
0.71921
0.71921
0.71429
0.71429
0.71921
0.71921
0.72414
0.72414
0.72906
0.72906
0.72414
0.72414
0.71921
0.71429
0.70936
0.70443
0.70443
0.69951
0.69458
0.68966
0.68473
0.68473
0.6798
0.6798
0.6798
0.6798
0.68473
0.68473
0.68473
0.68473
0.68966
0.68966
0.69458
0.69458
0.69458
0.69458
0.69951
0.70443
0.71429
0.73892
0.76601
0.78079
0.79557
0.79557
0.76108
0.71429
0.69458
0.69951
0.70936
0.71429
0.70443
0.69458
0.6798
0.6798
0.6798
0.68473
0.68473
0.68966
0.69458
0.69951
0.70443
0.70936
0.74877
0.89901
1.1847
1.33
1.1108
0.61576
0.15517
-0.044335
-0.064039
0.059113
0.21921
0.34483
0.42611
0.49507
0.60591
0.72414
0.81034
0.84975
0.86453
0.87438
0.88424
0.88916
0.89409
0.89409
0.90394
0.91379
0.92611
0.94089
0.95567
0.9803
1.0049
1.0296
1.0591
1.0837
1.1059
1.1108
1.1158
1.101
1.0739
1.0443
1.0099
0.96552
0.91872
0.87438
0.83498
0.80049
0.76601
0.74384
0.72906
0.71921
0.71921
0.71429
0.71429
0.71429
0.71921
0.71921
0.72414
0.72906
0.72906
0.73399
0.72906
0.72906
0.72906
0.72414
0.71921
0.71921
0.71429
0.71429
0.71429
0.71429
0.71429
0.70936
0.70936
0.70936
0.71429
0.71429
0.71429
0.71429
0.71429
0.71429
0.71429
0.71429
0.71429
0.71921
0.71921
0.71921
0.71921
0.72414
0.73399
0.76108
0.78571
0.79557
0.80542
0.81034
0.77094
0.72414
0.70443
0.71429
0.71921
0.72414
0.70936
0.69951
0.69458
0.68966
0.69951
0.70443
0.70443
0.70443
0.70936
0.70936
0.70936
0.71921
0.76108
0.91379
1.1897
1.3054
1.0739
0.60591
0.18473
0
-0.019704
0.10099
0.25616
0.36946
0.44581
0.51478
0.60591
0.71429
0.80049
0.84483
0.85961
0.87438
0.87931
0.88916
0.89409
0.89901
0.90394
0.91379
0.91872
0.93596
0.94581
0.97044
0.99507
1.0197
1.0443
1.064
1.0837
1.0961
1.0911
1.0788
1.064
1.0394
1
0.96059
0.91872
0.87931
0.8399
0.80542
0.78079
0.76108
0.73892
0.72906
0.72906
0.72414
0.72414
0.72906
0.72906
0.72906
0.72906
0.73399
0.73892
0.73892
0.74384
0.74384
0.73399
0.72906
0.72414
0.71429
0.70936
0.70443
0.70443
0.69951
0.69951
0.69458
0.69458
0.69458
0.69951
0.69951
0.69951
0.69951
0.69951
0.69951
0.69951
0.69951
0.70443
0.70936
0.70936
0.70936
0.70443
0.70936
0.71429
0.72414
0.74384
0.76601
0.78571
0.79064
0.79557
0.76108
0.71921
0.69951
0.70443
0.71429
0.71921
0.70443
0.69458
0.68473
0.68473
0.68966
0.69458
0.69458
0.69458
0.69951
0.70443
0.70936
0.71921
0.76108
0.91379
1.1995
1.33
1.0961
0.59113
0.13547
-0.059113
-0.078818
0.064039
0.21921
0.3399
0.42118
0.49015
0.59113
0.70443
0.78571
0.8202
0.83498
0.84975
0.85468
0.85961
0.86946
0.87438
0.87931
0.89409
0.90394
0.91872
0.94089
0.96552
0.99015
1.0148
1.0443
1.064
1.0788
1.0911
1.0911
1.0739
1.0493
1.0197
0.9803
0.94089
0.89409
0.85468
0.81527
0.78079
0.74384
0.72906
0.71921
0.70936
0.70443
0.70443
0.70443
0.70936
0.71429
0.71429
0.71921
0.72414
0.72414
0.72414
0.72414
0.72414
0.71921
0.71921
0.71429
0.70443
0.69951
0.69458
0.69458
0.69458
0.68966
0.68966
0.68473
0.68473
0.68473
0.68473
0.68473
0.68473
0.68473
0.68473
0.68473
0.68473
0.68473
0.68473
0.68473
0.68966
0.69458
0.70936
0.73399
0.76108
0.78079
0.79064
0.79557
0.76601
0.72414
0.69951
0.69951
0.70936
0.71429
0.70443
0.68966
0.6798
0.6798
0.6798
0.68473
0.69458
0.69458
0.69458
0.69458
0.69458
0.68966
0.72414
0.86453
1.1355
1.2857
1.0837
0.62562
0.17488
-0.034483
-0.064039
0.049261
0.20936
0.33498
0.40887
0.47537
0.56404
0.6798
0.76601
0.81034
0.82512
0.83498
0.84975
0.85468
0.86946
0.87931
0.88916
0.89901
0.91379
0.93103
0.95074
0.97044
0.99507
1.0197
1.0443
1.069
1.0837
1.0961
1.101
1.0911
1.069
1.0443
1.0049
0.96552
0.91872
0.87438
0.83498
0.80049
0.76601
0.73892
0.72414
0.71429
0.70443
0.69951
0.69458
0.69458
0.69951
0.70443
0.70443
0.70936
0.71429
0.71429
0.71429
0.71429
0.70443
0.69951
0.69458
0.68473
0.68473
0.6798
0.6798
0.67488
0.67488
0.66995
0.66502
0.66502
0.66995
0.67488
0.68473
0.69458
0.70443
0.70936
0.71429
0.72414
0.73399
0.74384
0.75616
0.76601
0.78571
0.80542
0.82512
0.83005
0.83498
0.81034
0.77094
0.72414
0.71429
0.71921
0.72414
0.71429
0.69458
0.67488
0.6601
0.65517
0.65517
0.65025
0.65025
0.65025
0.65025
0.65517
0.6601
0.66995
0.72906
0.93103
1.2143
1.2906
0.94581
0.42118
0.024631
-0.10099
-0.068966
0.078818
0.23892
0.35468
0.43596
0.51478
0.63054
0.75616
0.83498
0.87438
0.89409
0.91379
0.92611
0.93596
0.94581
0.95074
0.96059
0.96552
0.9803
0.99015
1.0049
1.0197
1.0394
1.064
1.0837
1.101
1.1108
1.1158
1.101
1.0739
1.0394
1
0.95074
0.89901
0.84975
0.80049
0.75616
0.71921
0.68966
0.66995
0.65517
0.65025
0.65025
0.65517
0.65517
0.6601
0.66995
0.6798
0.68473
0.68966
0.69951
0.70443
0.71429
0.71921
0.72414
0.73399
0.73892
0.73892
0.73892
0.73892
0.73892
0.73399
0.73399
0.73399
0.73399
0.73892
0.72906
0.72414
0.71921
0.71429
0.71429
0.71921
0.71921
0.71429
0.70936
0.70443
0.70443
0.70443
0.71429
0.72906
0.74877
0.76601
0.77094
0.77586
0.73892
0.69458
0.67488
0.67488
0.68966
0.69458
0.6798
0.66502
0.65517
0.65517
0.65517
0.65517
0.6601
0.66502
0.67488
0.67488
0.6798
0.68966
0.72906
0.87931
1.1552
1.2956
1.0911
0.62069
0.16502
-0.044335
-0.068966
0.044335
0.20936
0.3399
0.42611
0.49507
0.60099
0.71921
0.80542
0.84483
0.86453
0.87438
0.87931
0.88916
0.89409
0.89901
0.90394
0.91379
0.92611
0.94089
0.95567
0.97537
0.99507
1.0197
1.0443
1.069
1.0837
1.0961
1.0911
1.0739
1.0493
1.0197
0.9803
0.94089
0.89409
0.84483
0.80542
0.76601
0.73892
0.71921
0.70443
0.69458
0.68473
0.68473
0.68473
0.68473
0.69458
0.70443
0.70936
0.71429
0.71921
0.71921
0.72414
0.71921
0.71921
0.71429
0.71429
0.71429
0.70443
0.69951
0.69458
0.69951
0.69951
0.69951
0.69951
0.69951
0.69951
0.69951
0.69951
0.70443
0.70936
0.70443
0.70443
0.70443
0.69951
0.69951
0.69951
0.69951
0.70936
0.72414
0.74877
0.77094
0.78079
0.78571
0.77586
0.73892
0.69951
0.69458
0.69951
0.71429
0.70443
0.69951
0.68473
0.67488
0.67488
0.6798
0.68473
0.68966
0.69458
0.69951
0.69951
0.70443
0.71429
0.78079
0.9803
1.2611
1.3202
0.96552
0.46552
0.078818
-0.054187
-0.024631
0.11576
0.26601
0.37438
0.44089
0.51478
0.62069
0.73399
0.81527
0.84975
0.86946
0.87931
0.88424
0.88916
0.89901
0.90394
0.91379
0.92611
0.94089
0.95567
0.97537
1
1.0246
1.0493
1.0739
1.0961
1.1108
1.1158
1.1158
1.0961
1.069
1.0296
0.98522
0.94581
0.89901
0.85468
0.8202
0.78079
0.75616
0.73399
0.72414
0.71429
0.70443
0.70443
0.70443
0.70443
0.70936
0.71429
0.71921
0.72906
0.72906
0.72906
0.73399
0.72906
0.72906
0.72414
0.71921
0.71921
0.71429
0.71429
0.70936
0.70443
0.69951
0.69458
0.69458
0.69458
0.69458
0.69458
0.69458
0.69458
0.68966
0.69458
0.69951
0.69951
0.69951
0.69951
0.69951
0.70443
0.71429
0.73399
0.76108
0.77586
0.78571
0.79064
0.76601
0.72414
0.69951
0.69951
0.71429
0.71921
0.70936
0.69951
0.68473
0.6798
0.6798
0.68473
0.68966
0.69458
0.69458
0.69951
0.70443
0.70936
0.73892
0.86946
1.1404
1.3251
1.17
0.70443
0.21921
-0.034483
-0.064039
0.029557
0.19458
0.33005
0.42118
0.49015
0.58621
0.69951
0.79557
0.84483
0.85961
0.86946
0.87438
0.88424
0.88916
0.89409
0.89901
0.91379
0.92611
0.94089
0.95567
0.9803
1.0049
1.0296
1.0493
1.0739
1.0911
1.101
1.1059
1.0911
1.069
1.0394
1.0049
0.96552
0.91379
0.86946
0.82512
0.78571
0.75616
0.73399
0.71921
0.71429
0.70443
0.70443
0.70443
0.70936
0.71429
0.71921
0.71921
0.72414
0.72906
0.72906
0.73399
0.72414
0.72414
0.72414
0.71921
0.71429
0.70443
0.69951
0.69951
0.69951
0.69458
0.69458
0.69458
0.69458
0.69458
0.69458
0.69458
0.69458
0.69951
0.69951
0.69951
0.69951
0.70443
0.70443
0.70443
0.70936
0.70936
0.71921
0.73399
0.75616
0.77586
0.79064
0.80049
0.78571
0.74384
0.70936
0.69951
0.71429
0.72414
0.71921
0.70443
0.69458
0.68473
0.68966
0.69458
0.69458
0.69458
0.69951
0.69951
0.70443
0.70936
0.72906
0.8202
1.0443
1.2857
1.3103
0.85468
0.35961
0.044335
-0.034483
0.019704
0.16502
0.31034
0.40887
0.47044
0.54926
0.6601
0.76108
0.8202
0.84483
0.85468
0.86453
0.87438
0.87931
0.88916
0.89409
0.90394
0.91379
0.93103
0.94581
0.96552
0.99015
1.0197
1.0394
1.064
1.0788
1.0961
1.101
1.0911
1.0739
1.0443
1.0099
0.97044
0.92611
0.87931
0.8399
0.80542
0.77094
0.74384
0.72906
0.71921
0.71429
0.70936
0.70443
0.70443
0.70936
0.71429
0.71921
0.72414
0.72414
0.72906
0.72906
0.72906
0.72414
0.72414
0.71921
0.71429
0.71429
0.70936
0.70443
0.69951
0.69458
0.69458
0.69458
0.69458
0.69458
0.69458
0.69458
0.69458
0.69458
0.69951
0.69951
0.69951
0.70443
0.70443
0.70443
0.70936
0.71429
0.71921
0.72414
0.74384
0.77094
0.79064
0.80542
0.81034
0.78571
0.73892
0.70936
0.70443
0.71921
0.72414
0.71921
0.70443
0.69458
0.68966
0.68966
0.69458
0.69458
0.69951
0.69951
0.69951
0.70443
0.71429
0.73399
0.84483
1.1158
1.3448
1.2389
0.78571
0.26601
-0.029557
-0.083744
0
0.16502
0.31527
0.39901
0.47044
0.55911
0.6798
0.78571
0.83005
0.84975
0.85468
0.86453
0.87438
0.87931
0.88916
0.89409
0.90394
0.91379
0.93103
0.94581
0.96552
0.99507
1.0197
1.0443
1.069
1.0911
1.101
1.1059
1.0911
1.069
1.0394
1
0.96059
0.90887
0.86453
0.8202
0.78571
0.74877
0.72414
0.70936
0.69951
0.69951
0.69458
0.69458
0.69458
0.69951
0.69951
0.70443
0.70936
0.71429
0.71921
0.71921
0.71921
0.71921
0.71429
0.70936
0.70443
0.69951
0.69951
0.69458
0.69458
0.69458
0.68966
0.68473
0.68473
0.68473
0.68966
0.69458
0.69458
0.69458
0.69458
0.69951
0.69951
0.69458
0.69951
0.69951
0.69951
0.70443
0.70936
0.71921
0.74384
0.77586
0.79064
0.80049
0.80542
0.76601
0.71921
0.69951
0.70936
0.71921
0.72414
0.70936
0.69458
0.68473
0.68473
0.68473
0.69458
0.69458
0.69951
0.70443
0.70443
0.70443
0.71429
0.77094
0.94581
1.2291
1.3202
1.0443
0.54433
0.12562
-0.039409
-0.049261
0.096059
0.25616
0.37438
0.45074
0.5197
0.62069
0.72906
0.81034
0.84483
0.85961
0.87438
0.87931
0.88424
0.88916
0.89901
0.90887
0.91872
0.93596
0.95074
0.97044
0.99507
1.0197
1.0443
1.069
1.0961
1.1108
1.1207
1.1207
1.101
1.0739
1.0394
1.0049
0.96552
0.91872
0.87438
0.83498
0.80049
0.76601
0.74384
0.73399
0.72414
0.71921
0.71921
0.71921
0.71921
0.71921
0.72414
0.72906
0.73892
0.74384
0.74384
0.74384
0.74384
0.73892
0.73399
0.72906
0.72414
0.72414
0.71921
0.71921
0.71429
0.71429
0.71429
0.71429
0.71429
0.70936
0.70936
0.70443
0.70443
0.70443
0.70936
0.70936
0.70443
0.70443
0.69951
0.69951
0.70443
0.71429
0.73399
0.76108
0.78079
0.79557
0.80542
0.78571
0.74877
0.71429
0.70936
0.71921
0.72906
0.72414
0.71921
0.70936
0.70443
0.70443
0.70936
0.71429
0.71429
0.71921
0.71921
0.71921
0.72414
0.74384
0.8399
1.0739
1.3153
1.335
0.85468
0.34975
0.029557
-0.049261
0.0098522
0.1601
0.30542
0.40394
0.47044
0.55419
0.66995
0.77586
0.8399
0.86453
0.87931
0.88916
0.89409
0.90394
0.90887
0.91872
0.92611
0.94089
0.95074
0.97044
0.99015
1.0148
1.0394
1.064
1.0911
1.1108
1.1207
1.1256
1.1158
1.0911
1.0591
1.0197
0.97537
0.93596
0.88916
0.84483
0.80542
0.77586
0.75616
0.73892
0.72414
0.71429
0.70936
0.70936
0.70936
0.71429
0.71429
0.71921
0.72414
0.72906
0.72906
0.72906
0.72906
0.72906
0.72414
0.71921
0.71429
0.70443
0.69951
0.69951
0.69458
0.69458
0.69458
0.69458
0.69458
0.68966
0.68966
0.69458
0.69458
0.69458
0.69458
0.69951
0.69951
0.69951
0.70443
0.70443
0.70936
0.70936
0.72414
0.74877
0.77586
0.78571
0.80049
0.80542
0.77094
0.71921
0.69951
0.70443
0.71429
0.71921
0.70443
0.69458
0.6798
0.6798
0.68473
0.68473
0.68966
0.69458
0.69951
0.70443
0.70443
0.71429
0.77094
0.94581
1.2192
1.3153
1.0493
0.55419
0.12562
-0.049261
-0.064039
0.086207
0.24384
0.36453
0.44581
0.5197
0.62562
0.73399
0.81527
0.84483
0.85961
0.86946
0.87931
0.88916
0.89409
0.90394
0.91379
0.93103
0.94089
0.95567
0.97537
1
1.0197
1.0443
1.0739
1.1059
1.1207
1.1256
1.1305
1.1108
1.0788
1.0493
1.0099
0.96552
0.91872
0.87438
0.83005
0.80049
0.77094
0.74877
0.72906
0.72414
0.71921
0.71921
0.71921
0.71921
0.71921
0.72414
0.72414
0.72906
0.73399
0.73892
0.73892
0.73399
0.72906
0.71921
0.71921
0.71429
0.71429
0.70936
0.70443
0.70443
0.70443
0.69951
0.69951
0.69951
0.69951
0.69951
0.69951
0.69951
0.69951
0.69951
0.70443
0.69951
0.70443
0.70443
0.70936
0.71921
0.73399
0.76108
0.77586
0.79064
0.79557
0.78079
0.74384
0.70936
0.69951
0.71429
0.71921
0.71429
0.69951
0.68966
0.68473
0.68473
0.68966
0.69458
0.69458
0.69951
0.69951
0.70443
0.70936
0.73399
0.83498
1.0739
1.2956
1.3005
0.80542
0.31527
0.019704
-0.044335
0.024631
0.16995
0.31527
0.40394
0.47044
0.55419
0.66502
0.77094
0.83005
0.84975
0.86946
0.87438
0.87931
0.88916
0.89901
0.90887
0.91872
0.93103
0.94581
0.96059
0.98522
1.0099
1.0394
1.064
1.0911
1.1108
1.1207
1.1207
1.1108
1.0911
1.0591
1.0246
0.98522
0.93596
0.88424
0.8399
0.80542
0.77586
0.75616
0.73399
0.72414
0.71429
0.70936
0.70936
0.70936
0.70936
0.71429
0.71921
0.72414
0.72906
0.72906
0.72906
0.72906
0.72906
0.72414
0.71921
0.71429
0.70936
0.70443
0.69951
0.69458
0.69458
0.68966
0.68966
0.68966
0.68966
0.68966
0.69458
0.68966
0.68966
0.69458
0.69458
0.69458
0.69458
0.69458
0.69951
0.69951
0.70443
0.71921
0.74384
0.76601
0.78571
0.79557
0.78571
0.74877
0.70936
0.69458
0.69951
0.70936
0.70443
0.69951
0.68473
0.67488
0.67488
0.6798
0.6798
0.68473
0.68473
0.68473
0.68966
0.68966
0.69951
0.76108
0.95074
1.2389
1.3251
1.0296
0.51478
0.078818
-0.091133
-0.096059
0.068966
0.23399
0.34975
0.43103
0.50985
0.62562
0.73892
0.81034
0.8399
0.85468
0.86453
0.87438
0.87931
0.88916
0.89901
0.90394
0.91872
0.93596
0.95074
0.97537
0.99507
1.0197
1.0493
1.0739
1.101
1.1158
1.1207
1.1158
1.0961
1.069
1.0345
0.99507
0.95074
0.90394
0.85961
0.81527
0.78079
0.74384
0.72906
0.71921
0.70936
0.70443
0.69951
0.70443
0.70443
0.70936
0.71429
0.71429
0.71921
0.72414
0.71921
0.71429
0.71429
0.70936
0.70443
0.70443
0.69951
0.69458
0.69458
0.68473
0.68473
0.68473
0.68473
0.68473
0.68473
0.68473
0.68966
0.69458
0.69458
0.69458
0.69458
0.69458
0.69458
0.69458
0.69951
0.69951
0.69951
0.70936
0.72906
0.75616
0.77586
0.78571
0.79557
0.77586
0.73399
0.70443
0.69951
0.71429
0.71921
0.71429
0.69951
0.68966
0.6798
0.68473
0.68966
0.69458
0.69458
0.69951
0.70443
0.70443
0.70443
0.72906
0.83005
1.0788
1.3103
1.3153
0.8202
0.32512
0.024631
-0.044335
0.024631
0.17488
0.32512
0.42118
0.4803
0.55911
0.66995
0.77586
0.83498
0.85468
0.87438
0.87931
0.88424
0.88916
0.89901
0.90394
0.91872
0.92611
0.94089
0.95567
0.97537
1
1.0197
1.0493
1.069
1.0911
1.1059
1.1108
1.101
1.0788
1.0493
1.0197
0.9803
0.94089
0.89409
0.84975
0.81034
0.78079
0.75616
0.73892
0.72906
0.71921
0.71921
0.72414
0.71921
0.71921
0.72414
0.72906
0.72906
0.73399
0.73892
0.73892
0.73399
0.72906
0.72414
0.71921
0.71429
0.70443
0.70443
0.69951
0.69951
0.69951
0.69951
0.69951
0.69951
0.69951
0.69951
0.69951
0.69951
0.70443
0.70443
0.70443
0.70443
0.70936
0.70936
0.71921
0.73399
0.76108
0.78079
0.79557
0.80542
0.81034
0.76108
0.71921
0.71429
0.72414
0.72906
0.72414
0.71429
0.70443
0.69458
0.69458
0.69951
0.70443
0.70936
0.71429
0.71921
0.71921
0.71921
0.72906
0.79064
0.97537
1.266
1.3498
1.0394
0.51478
0.10099
-0.054187
-0.059113
0.096059
0.25616
0.37438
0.44581
0.5197
0.63054
0.74877
0.82512
0.85961
0.87438
0.88916
0.89409
0.89901
0.90394
0.91379
0.91872
0.93596
0.94581
0.96059
0.9803
1.0049
1.0246
1.0542
1.0788
1.1059
1.1158
1.1207
1.1158
1.0961
1.069
1.0345
0.99507
0.95074
0.90394
0.85961
0.81527
0.78079
0.74877
0.72906
0.71921
0.70936
0.70443
0.70443
0.69951
0.69951
0.70443
0.70443
0.70936
0.71429
0.71429
0.71429
0.71429
0.70443
0.70443
0.69951
0.69458
0.68473
0.68473
0.6798
0.6798
0.6798
0.6798
0.67488
0.67488
0.6798
0.6798
0.6798
0.6798
0.6798
0.6798
0.6798
0.6798
0.68473
0.68473
0.68966
0.68966
0.68966
0.69951
0.71429
0.73892
0.76108
0.77586
0.78571
0.77586
0.73399
0.69951
0.68966
0.69951
0.70443
0.69951
0.68966
0.6798
0.67488
0.67488
0.67488
0.6798
0.68473
0.68473
0.68966
0.69458
0.69951
0.70936
0.77586
0.98522
1.2537
1.3103
0.94581
0.44089
0.059113
-0.073892
-0.039409
0.10099
0.26108
0.36946
0.44089
0.52463
0.63547
0.74384
0.81527
0.84483
0.85961
0.86946
0.87931
0.88916
0.89409
0.89901
0.90887
0.91872
0.93596
0.95074
0.96552
0.99015
1.0148
1.0443
1.064
1.0837
1.101
1.1108
1.101
1.0837
1.0591
1.0246
0.98522
0.94581
0.89901
0.85468
0.81527
0.78079
0.75616
0.72906
0.71921
0.71429
0.70936
0.70443
0.70443
0.70443
0.71429
0.71429
0.71921
0.72414
0.72414
0.72414
0.71921
0.71429
0.70936
0.70443
0.69951
0.69458
0.69458
0.69458
0.69458
0.68966
0.68473
0.68473
0.68473
0.68473
0.68473
0.68473
0.68966
0.69458
0.69458
0.69458
0.69458
0.69458
0.69458
0.69458
0.69951
0.70443
0.70443
0.70443
0.71921
0.74384
0.76601
0.78571
0.79064
0.79557
0.76108
0.71921
0.70443
0.71429
0.71921
0.71429
0.70443
0.69458
0.68473
0.68966
0.69458
0.69458
0.69458
0.69458
0.69951
0.69951
0.69951
0.70936
0.77094
0.95074
1.2241
1.3054
1
0.50493
0.11576
-0.029557
-0.034483
0.11084
0.26108
0.36946
0.44089
0.50985
0.61576
0.72906
0.80542
0.84483
0.85961
0.86946
0.87931
0.89409
0.89901
0.90394
0.91379
0.92611
0.94089
0.95567
0.97537
0.99507
1.0246
1.0493
1.0739
1.0961
1.1108
1.1207
1.1158
1.101
1.0739
1.0443
1.0049
0.96552
0.91872
0.87931
0.83498
0.80542
0.77586
0.74877
0.73892
0.72906
0.72414
0.71921
0.71921
0.71921
0.71921
0.72414
0.72906
0.73892
0.73892
0.73399
0.72906
0.72414
0.71921
0.71429
0.70443
0.69951
0.69458
0.68966
0.68473
0.68473
0.6798
0.6798
0.6798
0.6798
0.6798
0.68473
0.68473
0.68473
0.68473
0.68473
0.68473
0.68966
0.68966
0.68966
0.69458
0.69951
0.69951
0.69951
0.71429
0.73892
0.76601
0.78079
0.79064
0.79064
0.76601
0.71921
0.69458
0.69951
0.71429
0.71429
0.70443
0.69458
0.6798
0.67488
0.6798
0.68473
0.68473
0.68473
0.68966
0.69458
0.69458
0.70443
0.73892
0.88424
1.17
1.335
1.1453
0.6601
0.18473
-0.054187
-0.083744
0.029557
0.19458
0.33005
0.40887
0.49015
0.59606
0.71429
0.80049
0.83498
0.85468
0.86946
0.87931
0.88916
0.89409
0.90394
0.91379
0.92611
0.93596
0.95074
0.96552
0.99015
1.0099
1.0394
1.069
1.0911
1.1108
1.1158
1.1207
1.1059
1.0837
1.0493
1.0197
0.97537
0.93103
0.88424
0.84483
0.81034
0.78079
0.76108
0.73892
0.72906
0.72414
0.72414
0.71921
0.71921
0.71921
0.72414
0.72906
0.73399
0.73399
0.73892
0.73399
0.72906
0.72414
0.71921
0.71921
0.71429
0.70936
0.70443
0.70443
0.70443
0.69951
0.69951
0.69951
0.69951
0.69951
0.69951
0.69951
0.70443
0.70443
0.70443
0.70443
0.70936
0.70936
0.70936
0.71429
0.71429
0.71921
0.72906
0.74877
0.77586
0.79064
0.80049
0.80542
0.77586
0.72906
0.70936
0.71429
0.72414
0.71921
0.70936
0.69951
0.68966
0.68473
0.68966
0.69458
0.69458
0.69951
0.69951
0.70443
0.70443
0.71429
0.75616
0.89901
1.1798
1.3103
1.0911
0.61576
0.18473
-0.0098522
-0.029557
0.086207
0.23892
0.35961
0.43596
0.50985
0.60099
0.70936
0.79557
0.8399
0.85961
0.87438
0.87931
0.88916
0.89409
0.89901
0.90887
0.91872
0.93596
0.95074
0.96552
0.99015
1.0099
1.0394
1.0591
1.0788
1.0961
1.101
1.101
1.0911
1.069
1.0443
1.0099
0.97044
0.92611
0.87931
0.8399
0.80542
0.77586
0.74877
0.73892
0.72906
0.72414
0.72414
0.72414
0.72906
0.72906
0.73399
0.73892
0.74384
0.74877
0.74877
0.74384
0.73892
0.73399
0.72906
0.72414
0.72414
0.71921
0.71429
0.71429
0.70936
0.70936
0.71429
0.70936
0.70936
0.70936
0.70443
0.70443
0.70443
0.70936
0.70936
0.71429
0.71921
0.71921
0.71921
0.71921
0.71921
0.71921
0.72906
0.74877
0.77586
0.79064
0.80542
0.81034
0.79064
0.74384
0.71429
0.71429
0.72414
0.72906
0.71921
0.70443
0.69458
0.68966
0.68966
0.68966
0.69458
0.69458
0.69458
0.69951
0.69951
0.70443
0.72414
0.82512
1.0788
1.3153
1.3251
0.81034
0.29557
-0.0049261
-0.078818
-0.0049261
0.15025
0.29557
0.39409
0.46552
0.55419
0.67488
0.78079
0.83498
0.85468
0.86946
0.87931
0.88916
0.89409
0.90394
0.91379
0.92611
0.94089
0.95074
0.96059
0.97537
1
1.0246
1.0493
1.064
1.0837
1.0961
1.101
1.0911
1.069
1.0394
1.0099
0.97044
0.93103
0.88424
0.84975
0.81034
0.78079
0.76108
0.74384
0.72906
0.72414
0.71921
0.71921
0.71921
0.71921
0.71921
0.72414
0.72414
0.72906
0.72906
0.72906
0.72414
0.71921
0.71429
0.70443
0.69951
0.69458
0.69458
0.68966
0.68473
0.68473
0.68473
0.68473
0.68966
0.68966
0.68966
0.68966
0.68966
0.69458
0.69458
0.69458
0.69458
0.69951
0.69951
0.69951
0.69951
0.70443
0.71429
0.73399
0.76108
0.77586
0.78571
0.79557
0.78079
0.73399
0.70443
0.69951
0.71429
0.71921
0.70936
0.69951
0.68473
0.6798
0.68473
0.68966
0.69458
0.69951
0.69951
0.69951
0.70443
0.70936
0.72414
0.8202
1.0542
1.2956
1.3153
0.83005
0.3399
0.039409
-0.039409
0.024631
0.16995
0.31527
0.40887
0.47537
0.55911
0.67488
0.77586
0.83005
0.85468
0.86946
0.87438
0.88424
0.89409
0.89901
0.90887
0.91872
0.93103
0.94089
0.95567
0.97537
0.99507
1.0099
1.0345
1.0591
1.069
1.0788
1.0911
1.0788
1.064
1.0345
1.0049
0.97044
0.93596
0.88916
0.84975
0.81527
0.78079
0.75616
0.73892
0.72414
0.71921
0.71429
0.71429
0.71429
0.71921
0.72414
0.72906
0.73399
0.73399
0.73399
0.72906
0.72906
0.72414
0.71921
0.71429
0.70443
0.70443
0.69951
0.69458
0.69458
0.69458
0.68966
0.68966
0.68966
0.68966
0.69458
0.69458
0.69951
0.69458
0.69458
0.69458
0.69458
0.69458
0.69458
0.69951
0.70443
0.70443
0.71921
0.74384
0.76601
0.78079
0.79064
0.79557
0.77094
0.72414
0.70443
0.70936
0.72414
0.71921
0.70936
0.69951
0.68966
0.68473
0.69458
0.69458
0.69951
0.69951
0.70443
0.70443
0.70936
0.71429
0.74877
0.88916
1.1552
1.3054
1.1158
0.65025
0.20443
0
-0.029557
0.073892
0.22414
0.34975
0.43103
0.49507
0.59113
0.70443
0.80049
0.84483
0.86453
0.87438
0.87931
0.88916
0.89901
0.90394
0.91872
0.92611
0.94089
0.95074
0.96552
0.98522
1.0099
1.0296
1.0542
1.069
1.0837
1.0961
1.0961
1.0788
1.0591
1.0296
0.99507
0.95567
0.91379
0.86946
0.83005
0.79557
0.76601
0.74384
0.72906
0.71921
0.71429
0.71429
0.71429
0.71429
0.71921
0.71921
0.72414
0.72906
0.73399
0.72906
0.72906
0.72414
0.71921
0.71429
0.70443
0.69951
0.69458
0.69458
0.68966
0.68966
0.68473
0.68473
0.68473
0.68473
0.68966
0.68966
0.68966
0.69458
0.69458
0.69458
0.69951
0.69951
0.69951
0.69951
0.69951
0.69951
0.69951
0.71429
0.74384
0.76601
0.78079
0.79064
0.79557
0.74877
0.70936
0.69951
0.70443
0.71429
0.70936
0.69951
0.68473
0.6798
0.6798
0.68473
0.68473
0.68966
0.69458
0.69458
0.69951
0.69951
0.70936
0.76601
0.95074
1.2241
1.3054
0.99507
0.49015
0.091133
-0.059113
-0.064039
0.096059
0.24384
0.35961
0.43596
0.51478
0.63547
0.74384
0.81527
0.84975
0.86453
0.87438
0.88424
0.89409
0.89901
0.90394
0.91379
0.91872
0.93596
0.94581
0.96552
0.9803
1.0049
1.0296
1.0493
1.069
1.0837
1.0961
1.0911
1.0739
1.0493
1.0246
0.98522
0.94581
0.90394
0.85961
0.8202
0.78571
0.76108
0.73892
0.72414
0.71429
0.71429
0.71429
0.71429
0.71429
0.71921
0.72414
0.72414
0.72906
0.72906
0.72906
0.72906
0.72414
0.71429
0.70936
0.70443
0.69951
0.69458
0.68966
0.68966
0.68473
0.68473
0.68966
0.69458
0.69458
0.69458
0.69458
0.69458
0.69458
0.69458
0.69458
0.69458
0.69951
0.69951
0.69951
0.69951
0.71429
0.73399
0.76108
0.78079
0.79064
0.79557
0.78079
0.73892
0.70936
0.70443
0.71921
0.72414
0.71429
0.70443
0.69458
0.68473
0.68966
0.69458
0.69951
0.69951
0.69951
0.70443
0.70936
0.70936
0.72414
0.80542
1.0246
1.2611
1.2808
0.83498
0.35961
0.049261
-0.024631
0.029557
0.17488
0.31527
0.40887
0.47537
0.55419
0.6601
0.76601
0.83005
0.85468
0.86946
0.87931
0.88424
0.88916
0.89409
0.90394
0.91379
0.93103
0.94089
0.95567
0.97044
0.98522
1.0099
1.0345
1.0542
1.069
1.0837
1.0961
1.0837
1.069
1.0443
1.0148
0.9803
0.94089
0.89901
0.85468
0.8202
0.78571
0.76601
0.74384
0.73399
0.72906
0.72414
0.72414
0.72414
0.72906
0.73399
0.73892
0.73892
0.73892
0.74384
0.73892
0.73399
0.72906
0.72414
0.71921
0.71429
0.70443
0.69951
0.69951
0.69458
0.69458
0.69458
0.69458
0.69458
0.69458
0.69458
0.69458
0.69458
0.69458
0.69951
0.69458
0.69458
0.69458
0.69951
0.69951
0.69951
0.70443
0.72414
0.74877
0.77586
0.79064
0.80049
0.80542
0.76108
0.71429
0.69951
0.70936
0.71921
0.71921
0.70936
0.69458
0.68473
0.68473
0.68966
0.69458
0.69458
0.69458
0.69951
0.69951
0.69951
0.70936
0.76108
0.92611
1.2044
1.3103
1.0542
0.54926
0.12069
-0.054187
-0.068966
0.073892
0.23399
0.34975
0.43103
0.50985
0.62562
0.73892
0.81527
0.84975
0.86453
0.87438
0.88424
0.88916
0.89409
0.89901
0.90394
0.91872
0.93596
0.94581
0.96059
0.9803
1
1.0197
1.0443
1.064
1.0739
1.0837
1.0911
1.0739
1.0493
1.0197
0.98522
0.94581
0.90394
0.85961
0.8202
0.78571
0.75616
0.73399
0.72414
0.71921
0.71429
0.71429
0.71429
0.71921
0.71921
0.72414
0.72414
0.72906
0.72906
0.72906
0.72414
0.72414
0.72414
0.71921
0.71429
0.70443
0.69951
0.69951
0.69458
0.69458
0.69458
0.68966
0.68966
0.69458
0.69458
0.69458
0.69458
0.69458
0.69458
0.69458
0.69458
0.69951
0.69951
0.69951
0.70443
0.70443
0.70936
0.71921
0.74384
0.76601
0.78571
0.79557
0.80542
0.78079
0.73399
0.71429
0.71429
0.72414
0.72906
0.71921
0.70443
0.69458
0.68966
0.69458
0.69951
0.69951
0.70443
0.70443
0.70936
0.70443
0.71429
0.73892
0.86453
1.1305
1.2906
1.1256
0.6798
0.23892
0.014778
-0.019704
0.078818
0.23399
0.35468
0.43596
0.5
0.59113
0.70443
0.79557
0.84483
0.85961
0.86946
0.87931
0.88424
0.89409
0.89901
0.90394
0.91379
0.92611
0.93596
0.95074
0.96552
0.98522
1.0049
1.0246
1.0443
1.0542
1.064
1.069
1.0591
1.0443
1.0197
0.98522
0.95074
0.91379
0.87438
0.83498
0.80049
0.77586
0.74877
0.73892
0.72906
0.72414
0.71921
0.71921
0.72414
0.72906
0.73892
0.74384
0.74877
0.74877
0.74877
0.74877
0.74384
0.73399
0.72906
0.72414
0.71921
0.71921
0.71429
0.71429
0.70936
0.70443
0.70443
0.70443
0.70443
0.70443
0.70443
0.70443
0.70936
0.70936
0.70936
0.71429
0.71429
0.71429
0.71429
0.71429
0.71429
0.71429
0.71921
0.73399
0.76108
0.78079
0.79557
0.81034
0.80049
0.76601
0.71921
0.71429
0.71921
0.72906
0.72414
0.71429
0.69951
0.69458
0.69951
0.69951
0.69951
0.70443
0.70443
0.70443
0.71429
0.71429
0.72414
0.79064
0.9803
1.2438
1.3153
0.96552
0.46059
0.086207
-0.044335
-0.0098522
0.12562
0.27586
0.37931
0.45074
0.5197
0.63054
0.74384
0.8202
0.84975
0.86946
0.87438
0.87931
0.88424
0.88916
0.89901
0.90394
0.91379
0.92611
0.94089
0.95567
0.97537
1
1.0197
1.0394
1.0591
1.069
1.0739
1.069
1.0542
1.0296
1.0049
0.97537
0.94089
0.89409
0.85468
0.8202
0.79064
0.76108
0.74384
0.72906
0.72414
0.71921
0.71429
0.71921
0.71921
0.72414
0.72414
0.72906
0.73399
0.73399
0.73892
0.73892
0.72906
0.72414
0.71921
0.71921
0.71429
0.70443
0.69951
0.69458
0.69458
0.69458
0.68966
0.68966
0.69458
0.69458
0.69458
0.69951
0.69951
0.69951
0.69951
0.69951
0.69951
0.69951
0.69951
0.69951
0.69951
0.69951
0.71429
0.73399
0.76108
0.78079
0.79064
0.79557
0.76601
0.72414
0.69951
0.69951
0.71429
0.71429
0.70443
0.69458
0.68473
0.68473
0.68473
0.68473
0.68966
0.69458
0.69951
0.69951
0.70443
0.70936
0.73892
0.86946
1.1355
1.3005
1.1256
0.66995
0.21429
-0.0098522
-0.044335
0.054187
0.21429
0.3399
0.42118
0.48522
0.57882
0.69951
0.78571
0.83005
0.84975
0.85961
0.86453
0.87438
0.87931
0.88916
0.89901
0.90887
0.91872
0.93596
0.94581
0.96552
0.98522
1.0049
1.0296
1.0493
1.064
1.0739
1.0739
1.069
1.0493
1.0197
0.99015
0.95074
0.90887
0.86946
0.83005
0.79557
0.76601
0.74384
0.72906
0.72414
0.71921
0.71921
0.71921
0.71921
0.72414
0.72906
0.73892
0.74384
0.74877
0.74384
0.74384
0.73892
0.73399
0.72906
0.72414
0.71921
0.71921
0.71429
0.70936
0.70443
0.70443
0.70443
0.70443
0.70443
0.70443
0.70936
0.70936
0.70936
0.70936
0.71429
0.71429
0.71429
0.71429
0.71921
0.71921
0.71921
0.72414
0.73892
0.76601
0.78571
0.80049
0.81034
0.80049
0.76601
0.72414
0.71429
0.71921
0.72906
0.72414
0.71429
0.69951
0.69458
0.69458
0.69951
0.69951
0.70443
0.70443
0.70443
0.70936
0.71429
0.71921
0.76601
0.93103
1.2094
1.3103
1.0443
0.55911
0.15517
-0.0098522
-0.024631
0.11084
0.26108
0.37438
0.44581
0.51478
0.60591
0.72414
0.81527
0.84975
0.86946
0.88424
0.88916
0.89409
0.89901
0.90394
0.90887
0.91872
0.93596
0.94581
0.96059
0.98522
1.0049
1.0296
1.0493
1.064
1.0739
1.0837
1.0788
1.069
1.0493
1.0197
0.98522
0.94581
0.90887
0.86453
0.82512
0.79064
0.76601
0.74384
0.72906
0.71921
0.71921
0.71429
0.71429
0.71921
0.72414
0.72906
0.72906
0.73892
0.73892
0.73892
0.73399
0.73399
0.72906
0.72414
0.71921
0.71921
0.71429
0.70936
0.70443
0.70443
0.69951
0.69951
0.69951
0.69951
0.69951
0.69458
0.69458
0.69951
0.69951
0.69951
0.69951
0.69951
0.69951
0.69951
0.70443
0.70443
0.70936
0.71921
0.73892
0.76601
0.78571
0.79557
0.80542
0.78079
0.73399
0.70443
0.70443
0.71921
0.71921
0.71429
0.70443
0.68966
0.68473
0.68473
0.68966
0.69458
0.69951
0.69951
0.70443
0.70443
0.70936
0.73399
0.8399
1.0961
1.3103
1.2044
0.77586
0.29557
0.014778
-0.044335
0.034483
0.18966
0.33005
0.42118
0.4803
0.56897
0.68473
0.78571
0.83498
0.85468
0.86946
0.87438
0.87931
0.88916
0.89409
0.89901
0.90887
0.91872
0.93596
0.95074
0.96552
0.99015
1.0099
1.0296
1.0542
1.069
1.0788
1.0837
1.0739
1.0542
1.0296
1
0.96059
0.91872
0.87931
0.83498
0.80542
0.77586
0.75616
0.73892
0.72906
0.71921
0.71921
0.71921
0.71921
0.71921
0.72414
0.73399
0.73892
0.73892
0.73892
0.73892
0.73892
0.72906
0.72414
0.71429
0.70936
0.70443
0.70443
0.69951
0.69951
0.69951
0.69458
0.69458
0.69458
0.69458
0.69458
0.69458
0.69951
0.69951
0.69951
0.69951
0.69951
0.69951
0.69951
0.69951
0.70443
0.70443
0.70936
0.71921
0.73892
0.76601
0.78571
0.79557
0.80049
0.76601
0.72414
0.69951
0.70443
0.71921
0.71921
0.70936
0.69458
0.68473
0.68473
0.68473
0.68473
0.69458
0.69458
0.69951
0.69951
0.70443
0.71429
0.74877
0.88916
1.1552
1.3005
1.1059
0.65025
0.21429
0.0098522
-0.019704
0.096059
0.24384
0.35961
0.43596
0.49507
0.57882
0.69951
0.79064
0.83498
0.85468
0.86946
0.87438
0.87931
0.88916
0.89409
0.90394
0.91379
0.92611
0.94089
0.95567
0.97537
0.99507
1.0148
1.0345
1.0493
1.069
1.0788
1.0837
1.0739
1.0493
1.0246
0.99507
0.95567
0.91379
0.87931
0.8399
0.80542
0.77586
0.75616
0.73892
0.72906
0.72414
0.72414
0.72414
0.72906
0.73892
0.73892
0.74384
0.74877
0.75616
0.76108
0.75616
0.74877
0.74384
0.73892
0.73399
0.72906
0.72906
0.72414
0.72414
0.71921
0.71429
0.71429
0.71429
0.71429
0.71429
0.71429
0.71429
0.71429
0.71429
0.71429
0.71429
0.71429
0.71429
0.71921
0.71921
0.72414
0.75616
0.78571
0.79557
0.81034
0.82512
0.81034
0.77586
0.72906
0.70443
0.70443
0.71429
0.71921
0.70936
0.69458
0.68473
0.6798
0.68473
0.68966
0.69458
0.69458
0.69951
0.70443
0.70936
0.72906
0.83498
1.0837
1.3103
1.2143
0.79064
0.29064
-0.0049261
-0.064039
0.019704
0.1798
0.31527
0.40394
0.47537
0.55911
0.6798
0.78079
0.83005
0.84975
0.86453
0.87438
0.87931
0.88424
0.89409
0.89901
0.90887
0.91872
0.93596
0.95567
0.97537
0.99507
1.0099
1.0345
1.0591
1.0739
1.0788
1.0837
1.0739
1.0591
1.0296
0.99507
0.96059
0.91872
0.87931
0.8399
0.80542
0.77094
0.74877
0.73399
0.72414
0.71921
0.71429
0.71429
0.71921
0.71921
0.72414
0.72906
0.72906
0.72906
0.72906
0.72906
0.72906
0.72906
0.71921
0.71429
0.70443
0.70443
0.69951
0.69951
0.69951
0.69458
0.69458
0.69458
0.69458
0.69458
0.69458
0.69458
0.69458
0.69458
0.69951
0.69951
0.70443
0.70443
0.70443
0.70443
0.70936
0.70936
0.70936
0.70936
0.72414
0.75616
0.77586
0.78571
0.80049
0.80542
0.76601
0.71921
0.70443
0.70936
0.71921
0.72414
0.70443
0.69458
0.68473
0.68473
0.68473
0.68966
0.68966
0.68966
0.69458
0.69951
0.69951
0.70443
0.75616
0.91872
1.1897
1.2808
1.0197
0.53941
0.14039
-0.024631
-0.029557
0.10591
0.25123
0.36453
0.44089
0.50985
0.60591
0.71429
0.79557
0.83005
0.84483
0.85468
0.85961
0.86946
0.87438
0.87931
0.88916
0.89901
0.90887
0.93103
0.94581
0.96059
0.9803
1.0049
1.0246
1.0443
1.0542
1.064
1.069
1.0542
1.0345
1.0049
0.97537
0.94089
0.89901
0.86453
0.82512
0.79064
0.76601
0.74384
0.72906
0.71921
0.71921
0.71921
0.72414
0.72414
0.72906
0.73399
0.73892
0.74384
0.74877
0.74877
0.75616
0.74384
0.72906
0.72906
0.72414
0.72414
0.71921
0.71429
0.71429
0.71429
0.71429
0.70936
0.70443
0.70443
0.70936
0.71429
0.71429
0.71429
0.71429
0.71429
0.71429
0.71429
0.71921
0.71921
0.71921
0.73399
0.76108
0.78571
0.80049
0.81034
0.81527
0.78079
0.73892
0.71429
0.71921
0.72906
0.73399
0.71921
0.70443
0.69458
0.69458
0.69458
0.69458
0.69951
0.69951
0.69951
0.70443
0.70443
0.70936
0.72906
0.83498
1.0961
1.3202
1.2241
0.78571
0.28079
-0.0098522
-0.068966
0.0098522
0.16995
0.31034
0.39901
0.47044
0.55419
0.66995
0.77586
0.82512
0.84483
0.85468
0.86453
0.87438
0.87931
0.88916
0.89409
0.89901
0.91379
0.92611
0.94089
0.96059
0.9803
1.0049
1.0246
1.0443
1.0591
1.069
1.0739
1.064
1.0443
1.0148
0.98522
0.94581
0.90887
0.86946
0.83005
0.79064
0.76108
0.73892
0.72414
0.71921
0.71429
0.70936
0.70936
0.71429
0.71429
0.71429
0.71921
0.72414
0.72906
0.72906
0.72414
0.72414
0.71921
0.71429
0.70936
0.70443
0.69951
0.69458
0.69458
0.68966
0.68966
0.68966
0.68966
0.68966
0.68966
0.68966
0.68966
0.69458
0.69458
0.69951
0.69951
0.69951
0.70443
0.70443
0.70443
0.70936
0.71921
0.74384
0.77586
0.78571
0.79557
0.79557
0.77586
0.72906
0.70443
0.70443
0.71921
0.71921
0.70936
0.69951
0.68473
0.68473
0.68473
0.68966
0.69458
0.69458
0.69951
0.70443
0.70443
0.70443
0.72906
0.8399
1.0911
1.3005
1.1897
0.77094
0.29064
0.014778
-0.039409
0.039409
0.19458
0.33005
0.42118
0.48522
0.56897
0.68473
0.78079
0.83498
0.85468
0.86946
0.87931
0.88916
0.89409
0.90394
0.91379
0.92611
0.93596
0.94581
0.96059
0.97537
1
1.0197
1.0443
1.064
1.0837
1.0961
1.0961
1.0837
1.069
1.0443
1.0148
0.97537
0.93596
0.89409
0.85468
0.8202
0.78571
0.76601
0.74877
0.73892
0.72414
0.72414
0.72414
0.72906
0.73399
0.74384
0.74877
0.75616
0.76108
0.76108
0.76108
0.75616
0.74877
0.74384
0.73399
0.72906
0.72414
0.72414
0.71921
0.71921
0.71921
0.71429
0.71429
0.71429
0.71429
0.71429
0.71429
0.71429
0.71429
0.71429
0.71429
0.71429
0.71429
0.71429
0.71429
0.71429
0.71429
0.72414
0.74877
0.77586
0.79064
0.80542
0.80049
0.77094
0.72414
0.69951
0.70443
0.71921
0.71921
0.70936
0.69458
0.6798
0.6798
0.6798
0.68473
0.68966
0.68966
0.69458
0.69951
0.69951
0.70443
0.73399
0.86453
1.1404
1.33
1.1749
0.70443
0.21921
-0.029557
-0.068966
0.029557
0.19458
0.3202
0.40394
0.47537
0.56897
0.68966
0.78079
0.82512
0.84483
0.85468
0.86453
0.86946
0.87931
0.88424
0.89409
0.90394
0.91379
0.93103
0.94089
0.96059
0.98522
1.0099
1.0296
1.0493
1.064
1.069
1.0739
1.064
1.0443
1.0148
0.98522
0.94581
0.90887
0.86453
0.83005
0.79064
0.76108
0.73892
0.72414
0.71921
0.71429
0.71429
0.71429
0.71429
0.71921
0.72414
0.72414
0.72906
0.72906
0.72906
0.72906
0.72906
0.71921
0.71429
0.70443
0.70443
0.69951
0.69458
0.68966
0.68966
0.68473
0.68473
0.68473
0.68473
0.68473
0.68473
0.68473
0.68473
0.68966
0.69458
0.69458
0.69458
0.69458
0.69951
0.69951
0.69951
0.70443
0.70936
0.72414
0.74877
0.77586
0.78571
0.79557
0.78079
0.74384
0.70936
0.69951
0.70936
0.71429
0.71429
0.69951
0.68473
0.6798
0.6798
0.6798
0.68473
0.68473
0.68966
0.69458
0.69951
0.69951
0.70936
0.78079
0.9803
1.234
1.2906
0.94089
0.45567
0.096059
-0.024631
-0.029557
0.13547
0.28079
0.38424
0.45074
0.52463
0.63054
0.73892
0.81034
0.83498
0.85468
0.86453
0.87438
0.87931
0.88424
0.89409
0.89901
0.90887
0.92611
0.94089
0.95567
0.97044
0.99507
1.0197
1.0394
1.0542
1.069
1.0739
1.0739
1.0591
1.0394
1.0049
0.97537
0.94089
0.89901
0.85468
0.82512
0.79064
0.77094
0.74877
0.73892
0.72906
0.72414
0.72906
0.72906
0.72906
0.73399
0.74384
0.74877
0.74877
0.75616
0.75616
0.74877
0.74384
0.73892
0.72906
0.72414
0.71921
0.71429
0.71429
0.71429
0.71429
0.71429
0.70936
0.70443
0.70936
0.71429
0.71429
0.71429
0.71429
0.71429
0.71429
0.71921
0.71921
0.72414
0.72414
0.72906
0.72414
0.73399
0.74877
0.78079
0.80049
0.81034
0.81527
0.80049
0.76108
0.72414
0.72414
0.73399
0.74384
0.72906
0.72414
0.70936
0.70443
0.70443
0.70443
0.70443
0.70443
0.70936
0.71429
0.71429
0.71429
0.72414
0.79064
0.98522
1.2611
1.33
0.97537
0.46552
0.073892
-0.059113
-0.029557
0.10591
0.26108
0.36453
0.43596
0.50985
0.62069
0.73399
0.80049
0.83005
0.84483
0.85468
0.86453
0.87438
0.87931
0.88916
0.89901
0.90394
0.91872
0.93103
0.94581
0.96552
0.98522
1.0099
1.0296
1.0443
1.0591
1.064
1.0591
1.0443
1.0197
0.99507
0.96059
0.91872
0.88424
0.8399
0.80049
0.77094
0.74384
0.72414
0.71429
0.70443
0.70443
0.70443
0.70443
0.70936
0.71429
0.71429
0.71921
0.71921
0.71921
0.71921
0.71429
0.71429
0.70936
0.70443
0.69951
0.69458
0.68966
0.68473
0.6798
0.6798
0.6798
0.6798
0.6798
0.6798
0.68473
0.68473
0.68473
0.68473
0.68473
0.68473
0.68966
0.68966
0.69458
0.69458
0.69951
0.69951
0.69951
0.70443
0.72414
0.75616
0.77094
0.78079
0.79064
0.77586
0.73892
0.69951
0.69951
0.70443
0.70936
0.69951
0.69458
0.6798
0.67488
0.67488
0.6798
0.68473
0.68473
0.68966
0.68966
0.68966
0.69458
0.70936
0.78571
0.99507
1.2488
1.3005
0.90887
0.42118
0.059113
-0.049261
-0.0049261
0.13547
0.28079
0.38424
0.45567
0.53448
0.64532
0.74877
0.8202
0.84483
0.85961
0.86946
0.87438
0.87931
0.88916
0.89901
0.90394
0.91872
0.93103
0.94089
0.95567
0.9803
1.0049
1.0296
1.0493
1.069
1.0788
1.0911
1.0911
1.0739
1.0493
1.0246
0.99507
0.95567
0.90887
0.86946
0.83498
0.80049
0.78079
0.76601
0.74877
0.74384
0.73892
0.73892
0.73892
0.74384
0.74384
0.74877
0.76108
0.76601
0.76601
0.76601
0.76601
0.76108
0.74877
0.74384
0.73892
0.73399
0.72906
0.72906
0.72906
0.72906
0.72906
0.72414
0.72414
0.72906
0.72906
0.72906
0.72906
0.73399
0.73399
0.73892
0.73892
0.73892
0.73892
0.73892
0.73892
0.74384
0.74877
0.76108
0.78571
0.80542
0.8202
0.83005
0.83498
0.80542
0.76601
0.74384
0.74877
0.76108
0.75616
0.74384
0.72906
0.71921
0.71921
0.72414
0.72414
0.72414
0.72414
0.72906
0.72906
0.72906
0.72906
0.76108
0.87931
1.1453
1.3399
1.1946
0.73892
0.25123
-0.0049261
-0.049261
0.039409
0.19458
0.33005
0.41379
0.4803
0.56897
0.68473
0.78079
0.83005
0.84975
0.85468
0.85961
0.86946
0.87438
0.88424
0.89409
0.89901
0.91379
0.92611
0.94089
0.96059
0.9803
1
1.0246
1.0443
1.0591
1.069
1.069
1.064
1.0443
1.0197
0.98522
0.94581
0.90394
0.86453
0.82512
0.79064
0.76108
0.73892
0.72414
0.71429
0.71429
0.70936
0.70936
0.70936
0.71429
0.71921
0.72414
0.72414
0.72414
0.72414
0.71921
0.71921
0.71429
0.70443
0.69951
0.69458
0.68966
0.68473
0.6798
0.6798
0.67488
0.67488
0.67488
0.6798
0.6798
0.6798
0.6798
0.6798
0.68473
0.68473
0.68473
0.68473
0.68966
0.69458
0.69458
0.68966
0.68966
0.69458
0.70443
0.73399
0.75616
0.77094
0.78079
0.78571
0.74384
0.69951
0.68473
0.69458
0.69951
0.70443
0.69458
0.68473
0.67488
0.66995
0.67488
0.67488
0.6798
0.6798
0.6798
0.68473
0.68473
0.69951
0.73892
0.89409
1.17
1.2906
1.064
0.59113
0.1601
-0.034483
-0.049261
0.068966
0.22906
0.34975
0.42611
0.49507
0.59606
0.70936
0.79064
0.83005
0.84483
0.85961
0.86946
0.87438
0.88424
0.89409
0.89901
0.91379
0.92611
0.94089
0.95567
0.97537
0.99507
1.0197
1.0394
1.0591
1.0739
1.0788
1.0837
1.0739
1.0542
1.0296
1
0.96552
0.92611
0.88424
0.84483
0.81034
0.78079
0.76108
0.74384
0.73399
0.72906
0.72906
0.72906
0.72906
0.73892
0.74384
0.74384
0.74877
0.75616
0.74877
0.74877
0.74384
0.73892
0.73399
0.72906
0.72414
0.71921
0.71921
0.71429
0.71429
0.71429
0.71429
0.71429
0.71429
0.71429
0.71429
0.71429
0.71921
0.71429
0.71429
0.71921
0.71921
0.71921
0.71921
0.71921
0.71921
0.72414
0.73892
0.76108
0.78571
0.80049
0.81034
0.81527
0.77586
0.73399
0.71921
0.72906
0.73399
0.72906
0.71429
0.69951
0.69458
0.69458
0.69458
0.69951
0.69951
0.70443
0.70443
0.70443
0.70936
0.71429
0.74877
0.89409
1.17
1.3202
1.1207
0.63547
0.16995
-0.039409
-0.068966
0.049261
0.20936
0.33498
0.40887
0.48522
0.58621
0.70443
0.78571
0.83005
0.84483
0.85468
0.86946
0.87438
0.88916
0.89409
0.90394
0.91379
0.93103
0.94089
0.96059
0.97537
0.99507
1.0197
1.0443
1.064
1.0788
1.0911
1.0911
1.0739
1.0493
1.0246
0.99507
0.95567
0.91379
0.87438
0.83498
0.80542
0.77586
0.75616
0.73892
0.72906
0.71921
0.71921
0.71921
0.71921
0.72414
0.72906
0.72906
0.72906
0.72414
0.72414
0.72414
0.71921
0.71429
0.70443
0.69951
0.69458
0.69458
0.68473
0.68473
0.68473
0.6798
0.6798
0.6798
0.6798
0.6798
0.6798
0.6798
0.6798
0.68473
0.68473
0.68473
0.68966
0.68966
0.69458
0.69458
0.69458
0.70443
0.73399
0.76108
0.77586
0.78571
0.79064
0.76601
0.71921
0.69458
0.69951
0.71429
0.71429
0.69951
0.69458
0.6798
0.6798
0.6798
0.68473
0.68473
0.69458
0.69458
0.69951
0.69951
0.70443
0.72906
0.8399
1.0961
1.3005
1.1798
0.74384
0.27586
0.014778
-0.034483
0.044335
0.19458
0.33005
0.42611
0.49015
0.57882
0.69951
0.79557
0.84483
0.86453
0.87931
0.88916
0.89409
0.89901
0.90394
0.91872
0.93103
0.94089
0.95074
0.96552
0.98522
1.0049
1.0246
1.0443
1.064
1.0788
1.0911
1.0961
1.0788
1.064
1.0394
1.0049
0.97044
0.93103
0.88916
0.85468
0.8202
0.78571
0.76108
0.74384
0.72906
0.72414
0.72414
0.72414
0.72414
0.72906
0.72906
0.73399
0.73399
0.73399
0.73399
0.72906
0.72414
0.71921
0.71429
0.70443
0.70443
0.70443
0.69951
0.69458
0.69458
0.68966
0.69458
0.69458
0.69458
0.69458
0.69951
0.69951
0.69951
0.69951
0.69951
0.70443
0.70443
0.70936
0.71429
0.71429
0.71429
0.72906
0.76108
0.78079
0.79557
0.80542
0.80049
0.77094
0.72414
0.70936
0.71429
0.72414
0.71921
0.71429
0.69951
0.68473
0.68473
0.68473
0.69458
0.69458
0.69951
0.70443
0.70936
0.71429
0.71921
0.75616
0.88916
1.1552
1.3005
1.1059
0.63547
0.19951
-0.0098522
-0.029557
0.073892
0.22414
0.34975
0.43103
0.49507
0.59606
0.71429
0.80542
0.84483
0.86453
0.88424
0.89409
0.89901
0.90394
0.91379
0.92611
0.94089
0.95074
0.96552
0.9803
1.0049
1.0246
1.0443
1.069
1.0837
1.1059
1.1108
1.1158
1.0961
1.0739
1.0443
1.0099
0.97537
0.93103
0.88916
0.84975
0.81034
0.78079
0.76108
0.74384
0.73399
0.72906
0.72414
0.72414
0.72906
0.72906
0.73399
0.73892
0.73892
0.73399
0.73399
0.73399
0.72906
0.71921
0.71429
0.70443
0.69951
0.69951
0.69458
0.69458
0.68966
0.68473
0.68473
0.6798
0.6798
0.68473
0.68473
0.68966
0.68473
0.68473
0.68966
0.68966
0.68966
0.69458
0.68966
0.69458
0.69951
0.71429
0.73892
0.76601
0.78079
0.79064
0.79557
0.75616
0.71429
0.69951
0.69951
0.70936
0.71429
0.69951
0.68473
0.67488
0.67488
0.67488
0.6798
0.68473
0.68473
0.68966
0.69458
0.69458
0.70443
0.74384
0.89901
1.1847
1.3103
1.069
0.57389
0.13547
-0.054187
-0.068966
0.064039
0.22414
0.34483
0.42611
0.5
0.61084
0.72906
0.81034
0.84975
0.86453
0.87931
0.88424
0.88916
0.89901
0.90394
0.91379
0.92611
0.94089
0.95567
0.97537
0.99015
1.0099
1.0345
1.0591
1.0739
1.0911
1.0961
1.101
1.0788
1.0591
1.0296
1
0.96552
0.91872
0.87438
0.83498
0.80049
0.76601
0.74384
0.72906
0.72414
0.71921
0.71921
0.71921
0.72414
0.72414
0.72414
0.72906
0.73399
0.73892
0.73892
0.73399
0.72906
0.72414
0.71921
0.71429
0.70936
0.70443
0.69951
0.69951
0.69951
0.69951
0.69951
0.69951
0.69951
0.69951
0.69951
0.69951
0.69951
0.69951
0.70443
0.70443
0.70443
0.70443
0.70443
0.70443
0.70443
0.71921
0.74384
0.77094
0.78571
0.80049
0.80542
0.76601
0.71921
0.70443
0.71429
0.71921
0.71921
0.70936
0.69458
0.68473
0.68473
0.68473
0.68473
0.68966
0.69458
0.69458
0.69951
0.70443
0.71429
0.74384
0.87931
1.1453
1.2857
1.0837
0.63054
0.19951
0
-0.024631
0.091133
0.23892
0.35961
0.43596
0.5
0.59606
0.70936
0.80049
0.8399
0.85468
0.86946
0.87438
0.88424
0.88916
0.89409
0.90394
0.91872
0.92611
0.94089
0.96059
0.9803
1
1.0197
1.0394
1.0591
1.0739
1.0837
1.0911
1.0788
1.0591
1.0296
1
0.96552
0.92611
0.87931
0.84483
0.80542
0.77586
0.74877
0.73892
0.73399
0.72906
0.72414
0.72414
0.72906
0.72906
0.72906
0.73399
0.73892
0.74384
0.74384
0.73892
0.73892
0.72906
0.72414
0.71921
0.71429
0.71429
0.71429
0.70936
0.70443
0.70443
0.70443
0.70443
0.70443
0.70443
0.70443
0.70443
0.70443
0.70443
0.70443
0.70936
0.70443
0.70443
0.70936
0.70936
0.70443
0.70443
0.71921
0.74384
0.77586
0.79064
0.79557
0.80049
0.76601
0.72414
0.69951
0.70443
0.71429
0.71921
0.70443
0.68966
0.67488
0.67488
0.6798
0.6798
0.68473
0.68473
0.68966
0.69458
0.69951
0.70443
0.72906
0.84975
1.1108
1.3153
1.1749
0.72414
0.23399
-0.034483
-0.073892
0.019704
0.1798
0.31527
0.39901
0.47044
0.56897
0.69458
0.78571
0.83005
0.84975
0.85961
0.87438
0.87931
0.88424
0.88916
0.89901
0.90394
0.91872
0.93103
0.95074
0.97044
0.99507
1.0099
1.0345
1.0591
1.069
1.0788
1.0837
1.0739
1.0591
1.0296
1
0.96059
0.91872
0.87931
0.83498
0.80049
0.76601
0.74384
0.72906
0.71921
0.71429
0.71429
0.70936
0.71429
0.71429
0.71921
0.72414
0.72414
0.72414
0.72414
0.72414
0.72414
0.71921
0.71429
0.70443
0.69951
0.69951
0.69458
0.68966
0.68473
0.68473
0.68473
0.6798
0.6798
0.6798
0.68473
0.68473
0.68473
0.68966
0.68966
0.68966
0.69458
0.69458
0.69458
0.69951
0.69951
0.69951
0.70443
0.71429
0.73892
0.76108
0.78079
0.78571
0.78079
0.74384
0.70936
0.68966
0.69458
0.70443
0.70936
0.69458
0.68473
0.67488
0.67488
0.6798
0.68473
0.68966
0.69458
0.69458
0.69458
0.69951
0.70443
0.74384
0.89409
1.1552
1.2759
1.0493
0.58621
0.16995
-0.014778
-0.029557
0.096059
0.24384
0.35961
0.43596
0.50493
0.60099
0.70936
0.79557
0.83005
0.84975
0.85961
0.86453
0.86946
0.87931
0.88424
0.89409
0.90394
0.91379
0.92611
0.94089
0.95567
0.97537
0.99507
1.0197
1.0394
1.0493
1.0591
1.064
1.0542
1.0394
1.0099
0.9803
0.94581
0.90394
0.86453
0.82512
0.79064
0.76601
0.74384
0.72906
0.72414
0.71921
0.71921
0.71921
0.71921
0.72414
0.72906
0.73892
0.73892
0.74384
0.74384
0.74384
0.73892
0.73399
0.72414
0.71921
0.71429
0.70936
0.70936
0.70443
0.70443
0.70443
0.70443
0.70443
0.69951
0.69951
0.69951
0.69951
0.69951
0.70443
0.70443
0.70443
0.70443
0.70443
0.70936
0.71429
0.71921
0.71921
0.71921
0.73892
0.76601
0.78571
0.80049
0.81034
0.80049
0.76108
0.71921
0.71429
