0.85686
0.86078
0.86078
0.86078
0.86078
0.86078
0.86667
0.86667
0.87059
0.87647
0.87059
0.87059
0.87647
0.87647
0.88039
0.88627
0.90196
0.91176
0.91569
0.92549
0.93137
0.93725
0.91569
0.89608
0.88039
0.87059
0.86667
0.86667
0.86078
0.8451
0.80588
0.7
0.83529
0.82549
0.76667
0.71569
0.68627
0.68039
0.6902
0.5902
0.4902
0.38431
0.30392
0.3902
0.4902
0.61961
0.75098
0.85098
0.92157
0.94118
0.95686
0.95098
0.95098
0.95098
0.94706
0.94706
0.94706
0.94118
0.94118
0.93725
0.93725
0.94118
0.93137
0.93137
0.93137
0.93137
0.93137
0.93137
0.93137
0.93137
0.93725
0.94118
0.93725
0.94706
0.94118
0.95098
0.95098
0.95686
0.95686
0.95686
0.95686
0.95686
0.95098
0.95098
0.93725
0.93725
0.93137
0.92549
0.92157
0.91569
0.91176
0.90588
0.90588
0.90588
0.90196
0.90196
0.89608
0.88627
0.88627
0.88627
0.88627
0.87647
0.87059
0.86078
0.86078
0.85686
0.85686
0.8451
0.8451
0.83529
0.8451
0.84118
0.85098
0.85098
0.85686
0.85686
0.86078
0.86667
0.86667
0.86667
0.87059
0.87647
0.87647
0.88039
0.88039
0.88627
0.88627
0.88627
0.88627
0.88627
0.88627
0.8902
0.89608
0.90588
0.91176
0.92549
0.92549
0.93725
0.94118
0.94118
0.92157
0.90196
0.88627
0.87647
0.87059
0.86667
0.86667
0.86078
0.84118
0.75098
0.71569
0.84118
0.81569
0.75098
0.7
0.67059
0.67647
0.66471
0.5549
0.47059
0.35882
0.32353
0.42941
0.53529
0.66471
0.77647
0.87647
0.92549
0.95098
0.95686
0.95686
0.95686
0.95686
0.95686
0.95098
0.95098
0.94706
0.95098
0.94706
0.94706
0.94118
0.94118
0.94706
0.94118
0.94706
0.94706
0.94118
0.94706
0.94706
0.95098
0.95098
0.94706
0.95686
0.95686
0.96078
0.96078
0.96667
0.96078
0.96667
0.95686
0.95686
0.95686
0.95098
0.94118
0.93725
0.93137
0.93137
0.92157
0.91569
0.91176
0.90588
0.90588
0.90588
0.90196
0.90196
0.89608
0.8902
0.8902
0.8902
0.88627
0.88627
0.87647
0.86667
0.86078
0.85686
0.85686
0.85098
0.85098
0.84118
0.8451
0.84118
0.85098
0.85098
0.85686
0.85686
0.86078
0.86078
0.86667
0.87059
0.87059
0.87059
0.87647
0.88039
0.88039
0.88627
0.88627
0.88627
0.88627
0.88627
0.88627
0.89608
0.90588
0.92157
0.92157
0.93137
0.94118
0.93725
0.91569
0.90588
0.88627
0.88039
0.87059
0.86667
0.87059
0.87059
0.8451
0.73529
0.72157
0.83529
0.81176
0.7451
0.7
0.67059
0.67059
0.65098
0.52549
0.46078
0.37059
0.33529
0.46078
0.56078
0.68627
0.8
0.88627
0.92157
0.94706
0.95098
0.95098
0.95098
0.95098
0.94118
0.94118
0.93137
0.93725
0.93725
0.93137
0.93137
0.93137
0.93725
0.93137
0.93725
0.93137
0.93725
0.93725
0.94118
0.94118
0.94118
0.94706
0.95098
0.94706
0.95686
0.95098
0.95686
0.95098
0.95098
0.95098
0.94706
0.94118
0.94118
0.93137
0.93137
0.92549
0.92549
0.91569
0.91569
0.91176
0.90588
0.90588
0.90196
0.90196
0.89608
0.89608
0.88627
0.8902
0.88627
0.88039
0.87059
0.87059
0.86078
0.86078
0.85686
0.85098
0.84118
0.84118
0.8451
0.8451
0.8451
0.8451
0.8451
0.8451
0.85098
0.85098
0.86078
0.86078
0.86078
0.86667
0.87647
0.87059
0.87647
0.87647
0.88039
0.88039
0.88627
0.88627
0.88627
0.88627
0.8902
0.89608
0.90588
0.91569
0.91569
0.92549
0.93725
0.94118
0.93137
0.90588
0.89608
0.88039
0.87059
0.87059
0.87059
0.87059
0.86667
0.8451
0.7549
0.84118
0.83137
0.78039
0.72549
0.69608
0.67059
0.66471
0.58431
0.48431
0.40392
0.33922
0.42941
0.52941
0.65098
0.77059
0.86078
0.92157
0.95098
0.95686
0.95686
0.95686
0.95686
0.95098
0.95098
0.94706
0.94706
0.94118
0.94706
0.94118
0.93725
0.93725
0.93725
0.93137
0.93725
0.94118
0.93725
0.94706
0.94118
0.94706
0.94706
0.94706
0.94706
0.95686
0.95686
0.95686
0.95686
0.95686
0.95098
0.95098
0.94706
0.94118
0.93725
0.93725
0.92549
0.92157
0.91176
0.91176
0.90588
0.90588
0.90588
0.90196
0.89608
0.89608
0.8902
0.8902
0.88627
0.87647
0.87647
0.87647
0.86667
0.86078
0.86078
0.85098
0.85098
0.8451
0.84118
0.84118
0.8451
0.83529
0.83529
0.84118
0.84118
0.8451
0.8451
0.85098
0.85686
0.86078
0.86078
0.86078
0.86078
0.86078
0.86667
0.86667
0.87059
0.87059
0.87059
0.87647
0.87647
0.88039
0.88627
0.89608
0.90588
0.92157
0.91569
0.93137
0.94706
0.94118
0.92549
0.90196
0.88627
0.87059
0.86078
0.86078
0.86078
0.86078
0.85098
0.80588
0.71569
0.84118
0.8451
0.77647
0.71569
0.67647
0.67059
0.6902
0.59608
0.49412
0.38039
0.28431
0.35882
0.46078
0.5902
0.72549
0.8451
0.91176
0.94118
0.95098
0.95098
0.94706
0.95098
0.94118
0.94118
0.93725
0.93725
0.94118
0.93137
0.93137
0.93137
0.93137
0.92549
0.93137
0.92549
0.93137
0.93137
0.93137
0.93725
0.94118
0.94118
0.94706
0.95098
0.95686
0.95686
0.95686
0.95686
0.95686
0.95686
0.95686
0.95686
0.94706
0.94118
0.94118
0.93137
0.93137
0.92549
0.92157
0.91569
0.90588
0.90588
0.90588
0.90588
0.8902
0.8902
0.88627
0.8902
0.88627
0.88627
0.87647
0.87059
0.86667
0.86078
0.85686
0.85098
0.85098
0.8451
0.8451
0.84118
0.84118
0.83529
0.8451
0.85098
0.85686
0.85686
0.86078
0.86078
0.86078
0.86078
0.86667
0.87059
0.87647
0.87647
0.88039
0.88039
0.88039
0.88039
0.88039
0.88039
0.88627
0.8902
0.90588
0.91569
0.91176
0.92157
0.93137
0.93725
0.92157
0.90588
0.88627
0.87647
0.86667
0.86078
0.86078
0.86667
0.86078
0.8451
0.72549
0.83529
0.84118
0.78039
0.72549
0.68627
0.66471
0.66471
0.60588
0.49412
0.41569
0.32353
0.3902
0.5
0.61569
0.7451
0.8451
0.91176
0.94118
0.95098
0.95686
0.95686
0.95686
0.95098
0.95098
0.95098
0.94706
0.94706
0.94706
0.93725
0.94118
0.93725
0.93137
0.93137
0.93137
0.93137
0.93137
0.93137
0.93137
0.94118
0.93725
0.94118
0.94706
0.94706
0.94706
0.95098
0.94706
0.95686
0.94706
0.95098
0.94118
0.93725
0.93137
0.93137
0.92549
0.92157
0.91569
0.91569
0.90588
0.90588
0.90588
0.90588
0.90588
0.89608
0.90196
0.89608
0.89608
0.88627
0.88627
0.88627
0.88039
0.86667
0.86667
0.85686
0.85686
0.8451
0.84118
0.83529
0.83529
0.83529
0.83529
0.84118
0.84118
0.8451
0.85098
0.85686
0.85686
0.86078
0.86078
0.86667
0.86667
0.87059
0.86667
0.87059
0.87059
0.87059
0.87059
0.87647
0.87647
0.88627
0.88627
0.89608
0.90588
0.91569
0.91569
0.92549
0.93137
0.93137
0.91569
0.89608
0.87647
0.86667
0.86078
0.85686
0.85686
0.85686
0.83529
0.72549
0.69608
0.82549
0.81176
0.75098
0.7
0.67059
0.66471
0.6451
0.53529
0.4549
0.36471
0.32941
0.4549
0.56078
0.68627
0.79608
0.87647
0.92157
0.94118
0.95686
0.95098
0.95686
0.95686
0.94706
0.94706
0.94118
0.93137
0.94118
0.93137
0.93137
0.92549
0.93137
0.93137
0.93137
0.93137
0.93137
0.93725
0.93725
0.93725
0.93725
0.94706
0.94118
0.94706
0.95098
0.95098
0.95098
0.94706
0.94706
0.94706
0.93725
0.93725
0.93137
0.93137
0.92157
0.92157
0.90588
0.90588
0.90588
0.90196
0.89608
0.89608
0.8902
0.8902
0.88627
0.88627
0.88039
0.88039
0.87647
0.87059
0.86667
0.86667
0.86078
0.85686
0.85098
0.84118
0.84118
0.83529
0.83529
0.83529
0.84118
0.83529
0.8451
0.84118
0.8451
0.8451
0.85098
0.85686
0.86078
0.86078
0.86078
0.86078
0.86078
0.86078
0.86667
0.86667
0.86667
0.86667
0.86667
0.87647
0.87647
0.88627
0.8902
0.91176
0.91176
0.91569
0.92549
0.93137
0.92157
0.90196
0.88039
0.87059
0.86078
0.85686
0.85098
0.85686
0.85098
0.83529
0.73137
0.82157
0.83137
0.78039
0.72549
0.68627
0.67647
0.68039
0.63529
0.5
0.41961
0.31373
0.3098
0.46078
0.57451
0.7098
0.81569
0.8902
0.93137
0.94118
0.95098
0.95098
0.94706
0.94118
0.94118
0.93725
0.94118
0.93725
0.93137
0.93725
0.93137
0.93137
0.93137
0.93137
0.93137
0.93137
0.93137
0.93137
0.93137
0.93137
0.93137
0.94706
0.94706
0.94706
0.95098
0.95686
0.95686
0.95686
0.95686
0.95686
0.95098
0.94706
0.94118
0.94118
0.93725
0.93137
0.92549
0.92157
0.91569
0.90588
0.90588
0.90196
0.90196
0.8902
0.8902
0.88627
0.88627
0.88627
0.88039
0.87059
0.87059
0.86078
0.86078
0.86078
0.85686
0.85098
0.8451
0.83529
0.83529
0.83529
0.83529
0.83529
0.84118
0.8451
0.85098
0.86078
0.85686
0.86078
0.86078
0.86667
0.87059
0.87647
0.87647
0.88039
0.87647
0.88039
0.88039
0.88039
0.87647
0.88039
0.88627
0.8902
0.90196
0.91176
0.92157
0.91569
0.93725
0.94118
0.92549
0.90588
0.88627
0.87059
0.86667
0.86078
0.86078
0.85686
0.86078
0.83529
0.7451
0.83137
0.83529
0.78039
0.72549
0.68039
0.67059
0.67647
0.62941
0.50588
0.42549
0.32353
0.31373
0.47059
0.58039
0.71569
0.82157
0.90196
0.93725
0.95686
0.95686
0.95686
0.95686
0.95686
0.95098
0.95098
0.94706
0.94706
0.93725
0.94118
0.93725
0.94118
0.93137
0.93725
0.94118
0.93725
0.94118
0.94118
0.94706
0.94118
0.94706
0.95098
0.95686
0.95686
0.96667
0.96078
0.96667
0.96078
0.96667
0.96078
0.95686
0.95686
0.95686
0.94118
0.93725
0.93137
0.93137
0.92157
0.92549
0.92157
0.91176
0.90588
0.90588
0.90588
0.90588
0.90196
0.8902
0.8902
0.88627
0.88039
0.87647
0.87647
0.86667
0.86667
0.86078
0.86078
0.85098
0.85098
0.8451
0.8451
0.85098
0.8451
0.85098
0.85686
0.86078
0.86667
0.86667
0.86667
0.87647
0.87059
0.88039
0.88039
0.88039
0.88039
0.88627
0.88627
0.88627
0.88627
0.88627
0.88627
0.8902
0.89608
0.90588
0.91176
0.91569
0.92549
0.93137
0.93725
0.91569
0.90196
0.88627
0.87647
0.87647
0.87059
0.87647
0.88039
0.85686
0.7451
0.71569
0.85098
0.82157
0.76078
0.7098
0.68039
0.67059
0.6549
0.53922
0.47059
0.37059
0.33922
0.46471
0.57059
0.69608
0.8
0.88039
0.93137
0.95098
0.95686
0.95686
0.95686
0.95686
0.95686
0.95098
0.94706
0.94706
0.94118
0.94706
0.94118
0.93725
0.93137
0.94118
0.93137
0.94118
0.93725
0.93725
0.94118
0.94118
0.94118
0.94706
0.94706
0.95686
0.95686
0.95686
0.95686
0.95686
0.95686
0.95686
0.95098
0.94706
0.94118
0.94118
0.93725
0.93137
0.92549
0.92157
0.91569
0.91176
0.91176
0.90588
0.90196
0.89608
0.89608
0.89608
0.8902
0.8902
0.88627
0.88627
0.88039
0.87059
0.87059
0.86667
0.86078
0.85686
0.85098
0.8451
0.84118
0.83529
0.83529
0.83529
0.83529
0.8451
0.85098
0.86078
0.86078
0.86078
0.87059
0.87059
0.87059
0.87647
0.87647
0.88627
0.87647
0.88039
0.87647
0.87647
0.88039
0.88039
0.88627
0.88627
0.90196
0.91176
0.91569
0.92157
0.93137
0.93137
0.92549
0.90588
0.89608
0.87647
0.87059
0.86078
0.86078
0.86078
0.86078
0.84118
0.7
0.83137
0.83529
0.7902
0.73137
0.6902
0.67059
0.66471
0.6098
0.4902
0.41961
0.33922
0.4
0.5098
0.61961
0.75098
0.83529
0.91176
0.94118
0.95686
0.95686
0.95686
0.95686
0.95686
0.95098
0.95686
0.95686
0.95098
0.94706
0.94706
0.94118
0.94118
0.93725
0.93725
0.93725
0.93725
0.93137
0.93137
0.93725
0.93725
0.94118
0.94118
0.95098
0.95098
0.95686
0.95686
0.95686
0.95686
0.95686
0.94706
0.95098
0.94118
0.93725
0.93137
0.92549
0.92157
0.91569
0.91176
0.90588
0.90196
0.89608
0.89608
0.89608
0.89608
0.89608
0.8902
0.88039
0.88039
0.87647
0.87647
0.86667
0.86078
0.85686
0.85098
0.8451
0.8451
0.84118
0.84118
0.84118
0.84118
0.83529
0.83529
0.84118
0.8451
0.85098
0.85098
0.85686
0.85686
0.86078
0.86078
0.86667
0.86667
0.86667
0.87059
0.87647
0.87059
0.87647
0.87647
0.88039
0.88039
0.88627
0.8902
0.90588
0.91569
0.91569
0.92157
0.93725
0.94118
0.92549
0.90196
0.88627
0.87647
0.86667
0.86078
0.85686
0.86078
0.85686
0.8451
0.7098
0.83137
0.84118
0.79608
0.73137
0.6902
0.67647
0.69608
0.6451
0.52549
0.42941
0.3098
0.3
0.42941
0.5451
0.68627
0.81569
0.89608
0.93137
0.95098
0.95686
0.95098
0.95098
0.94706
0.95098
0.94706
0.94706
0.94118
0.94118
0.93137
0.93137
0.93137
0.93137
0.93137
0.93137
0.93137
0.93137
0.93137
0.93137
0.93725
0.93725
0.94118
0.94706
0.95098
0.95098
0.95686
0.95686
0.96078
0.95686
0.95098
0.94118
0.94118
0.93725
0.93137
0.92549
0.93137
0.92549
0.91569
0.91569
0.91569
0.90588
0.90196
0.90196
0.89608
0.89608
0.89608
0.88627
0.88627
0.88039
0.87647
0.87059
0.86667
0.86667
0.86078
0.85686
0.8451
0.8451
0.84118
0.83529
0.83529
0.83529
0.83529
0.8451
0.8451
0.85098
0.85098
0.85686
0.86078
0.86078
0.86078
0.86078
0.86667
0.86667
0.87059
0.87059
0.87647
0.87647
0.88039
0.87647
0.88039
0.88039
0.89608
0.90196
0.91176
0.91176
0.93137
0.93725
0.93725
0.91176
0.8902
0.87647
0.86667
0.86078
0.86078
0.86078
0.86078
0.84118
0.74118
0.72549
0.83137
0.80588
0.7451
0.69608
0.66078
0.66471
0.65098
0.53529
0.4549
0.3549
0.31961
0.4451
0.55098
0.67647
0.78627
0.87647
0.92157
0.94118
0.95098
0.95686
0.95098
0.94706
0.95098
0.94118
0.94118
0.94118
0.93725
0.93725
0.93137
0.93137
0.93137
0.93137
0.93137
0.93137
0.93725
0.93137
0.93725
0.93725
0.94118
0.94118
0.94706
0.95098
0.95686
0.96078
0.95686
0.95686
0.95686
0.95686
0.95686
0.94706
0.93725
0.94118
0.93137
0.92549
0.91569
0.92157
0.91176
0.90588
0.90196
0.90196
0.89608
0.89608
0.89608
0.89608
0.88627
0.88039
0.87647
0.88039
0.87059
0.86667
0.86078
0.86078
0.85686
0.8451
0.83529
0.83529
0.84118
0.83529
0.83529
0.83529
0.83529
0.83529
0.8451
0.85098
0.85686
0.85686
0.86078
0.86078
0.86078
0.86667
0.87059
0.87059
0.87647
0.87059
0.87647
0.87059
0.87647
0.88039
0.88039
0.88627
0.90196
0.91176
0.90588
0.91569
0.92549
0.93137
0.91569
0.90196
0.88627
0.87059
0.86078
0.86078
0.86078
0.86078
0.8451
0.82549
0.6902
0.81569
0.83137
0.78627
0.72549
0.68627
0.66078
0.6549
0.61569
0.4902
0.42549
0.33529
0.32353
0.48431
0.59608
0.72549
0.83137
0.90196
0.93725
0.95686
0.95686
0.95686
0.96078
0.95686
0.95686
0.94706
0.94706
0.94706
0.94118
0.93725
0.93725
0.93137
0.93137
0.93137
0.93137
0.93137
0.93137
0.93137
0.93137
0.93725
0.93725
0.94706
0.94706
0.95686
0.95686
0.95686
0.95686
0.95686
0.95686
0.95686
0.94706
0.94706
0.93137
0.92549
0.91569
0.91569
0.90588
0.90588
0.90196
0.90196
0.89608
0.90196
0.8902
0.88627
0.8902
0.88627
0.8902
0.88627
0.88627
0.87647
0.87647
0.87059
0.87059
0.86078
0.86078
0.85098
0.8451
0.84118
0.84118
0.83529
0.84118
0.84118
0.8451
0.85098
0.85098
0.85686
0.86078
0.86078
0.86078
0.86078
0.86078
0.86667
0.87059
0.87647
0.87059
0.87647
0.87647
0.88039
0.88039
0.88039
0.88627
0.88627
0.89608
0.90588
0.90588
0.92157
0.92549
0.92157
0.90588
0.88627
0.87647
0.86667
0.86078
0.85686
0.86078
0.85686
0.84118
0.81176
0.73137
0.82549
0.80588
0.74118
0.7
0.66471
0.66078
0.66471
0.5451
0.46078
0.3549
0.3098
0.41569
0.51569
0.65098
0.76667
0.86667
0.91569
0.93725
0.94706
0.94706
0.94118
0.94118
0.94706
0.93725
0.93725
0.93137
0.93137
0.93137
0.92549
0.92157
0.93137
0.92549
0.92549
0.92157
0.93137
0.93137
0.93137
0.93137
0.93137
0.93725
0.93725
0.94706
0.94706
0.94706
0.95098
0.95098
0.95098
0.95686
0.94706
0.95098
0.93725
0.93725
0.93137
0.93137
0.92157
0.92157
0.91176
0.91569
0.91176
0.90588
0.90588
0.90196
0.8902
0.8902
0.88627
0.88627
0.88039
0.87647
0.87059
0.86667
0.86078
0.85686
0.85686
0.8451
0.84118
0.83529
0.83529
0.83529
0.83529
0.83529
0.84118
0.8451
0.85098
0.85098
0.85686
0.86078
0.86078
0.86078
0.86667
0.86667
0.86667
0.87059
0.87647
0.87647
0.88039
0.88627
0.88039
0.88627
0.88627
0.8902
0.90196
0.90588
0.91176
0.92549
0.93137
0.94706
0.93137
0.91176
0.8902
0.88039
0.86667
0.86078
0.86078
0.86078
0.86078
0.84118
0.7549
0.7451
0.83529
0.81176
0.7451
0.6902
0.67059
0.67647
0.66078
0.53922
0.46471
0.34902
0.30392
0.41961
0.52941
0.6549
0.78039
0.87647
0.92549
0.94706
0.95686
0.95098
0.95686
0.95098
0.94706
0.95098
0.94706
0.95098
0.94118
0.94706
0.93725
0.94118
0.93137
0.93137
0.93137
0.93137
0.93137
0.93725
0.93725
0.94706
0.94118
0.94706
0.94706
0.95098
0.95098
0.95686
0.95686
0.95686
0.95686
0.96078
0.95686
0.95686
0.94706
0.94118
0.94118
0.93137
0.93137
0.92549
0.92157
0.91176
0.91176
0.91176
0.90588
0.90196
0.90196
0.89608
0.89608
0.8902
0.8902
0.88627
0.88039
0.87059
0.87059
0.86078
0.86078
0.85686
0.85686
0.85098
0.8451
0.84118
0.84118
0.8451
0.8451
0.85098
0.85686
0.85686
0.86078
0.86078
0.86667
0.87647
0.87059
0.87647
0.87647
0.87647
0.87059
0.87647
0.87647
0.88039
0.87647
0.87647
0.88039
0.88627
0.90588
0.90588
0.90588
0.92549
0.93137
0.93137
0.91569
0.90196
0.88627
0.87059
0.86667
0.86667
0.86667
0.86667
0.85686
0.81569
0.71569
0.84118
0.82157
0.76078
0.71569
0.68039
0.67059
0.66078
0.56078
0.47451
0.38431
0.32941
0.43529
0.53922
0.66078
0.78627
0.87647
0.92549
0.95686
0.96078
0.96078
0.95686
0.95686
0.95686
0.95098
0.95098
0.94706
0.94706
0.94118
0.94118
0.93725
0.94118
0.93137
0.93725
0.94118
0.94118
0.94118
0.94118
0.94118
0.94118
0.94706
0.94706
0.95686
0.95686
0.95686
0.95686
0.95686
0.95686
0.95686
0.95098
0.95686
0.94118
0.94118
0.93137
0.93137
0.92157
0.91569
0.90588
0.90196
0.90196
0.90196
0.89608
0.89608
0.8902
0.88627
0.8902
0.88627
0.88627
0.88039
0.88039
0.87059
0.87059
0.86078
0.86078
0.85686
0.85098
0.84118
0.84118
0.83529
0.84118
0.8451
0.84118
0.8451
0.85098
0.85686
0.86078
0.86078
0.85686
0.86078
0.86078
0.87059
0.87647
0.87647
0.87647
0.87647
0.87647
0.88039
0.88627
0.88627
0.88627
0.8902
0.90196
0.91176
0.91176
0.92549
0.93137
0.93137
0.92157
0.90588
0.8902
0.87647
0.86667
0.86667
0.86667
0.87059
0.86667
0.84118
0.72549
0.83137
0.83529
0.78627
0.73529
0.6902
0.67059
0.66471
0.60588
0.4902
0.41569
0.3451
0.42941
0.52941
0.6451
0.76667
0.85686
0.90588
0.93725
0.95098
0.95098
0.95098
0.95098
0.94706
0.94706
0.94118
0.93725
0.94118
0.93725
0.93725
0.93725
0.93725
0.93137
0.93137
0.93137
0.93725
0.94118
0.94118
0.93725
0.94706
0.94118
0.95686
0.95098
0.95098
0.95686
0.96078
0.96667
0.95686
0.95686
0.95686
0.95686
0.94118
0.94118
0.93725
0.93137
0.93137
0.92157
0.91569
0.92157
0.90588
0.90588
0.90588
0.90196
0.90588
0.89608
0.8902
0.8902
0.88627
0.88627
0.88039
0.88627
0.88039
0.87647
0.86667
0.86078
0.86078
0.85686
0.85098
0.85098
0.86078
0.85686
0.85686
0.85686
0.86078
0.86078
0.86667
0.86667
0.86078
0.87059
0.86667
0.87059
0.87647
0.88039
0.88627
0.88627
0.88627
0.8902
0.8902
0.8902
0.89608
0.90196
0.91176
0.92549
0.93137
0.93137
0.94118
0.95098
0.94706
0.93137
0.91569
0.90588
0.8902
0.8902
0.88627
0.88627
0.88627
0.87647
0.8451
0.7549
0.85686
0.83529
0.78039
0.73529
0.71569
0.7098
0.72157
0.60588
0.51569
0.4098
0.34902
0.4451
0.55098
0.67647
0.8
0.87647
0.92549
0.94706
0.95686
0.95686
0.95686
0.95098
0.95098
0.95686
0.95686
0.94706
0.95098
0.94706
0.94706
0.95098
0.94706
0.94706
0.94118
0.94706
0.93725
0.94118
0.94706
0.95098
0.95098
0.95686
0.94706
0.95686
0.95686
0.96078
0.96078
0.96667
0.96078
0.96078
0.95686
0.95686
0.95686
0.94706
0.94706
0.93725
0.93137
0.93137
0.92549
0.92549
0.92157
0.91176
0.91569
0.91176
0.90588
0.90588
0.90588
0.90196
0.90196
0.89608
0.8902
0.88627
0.88627
0.87647
0.87647
0.86667
0.86667
0.86078
0.86078
0.86078
0.85686
0.85686
0.86078
0.86078
0.86078
0.86078
0.86667
0.87647
0.88039
0.88627
0.88627
0.8902
0.88627
0.8902
0.88627
0.8902
0.88627
0.8902
0.8902
0.89608
0.90196
0.89608
0.91176
0.92549
0.92549
0.92549
0.93725
0.93725
0.94118
0.92157
0.90196
0.88627
0.88039
0.87647
0.88039
0.87647
0.86667
0.84118
0.72549
0.83529
0.84118
0.79608
0.7451
0.7
0.68627
0.67059
0.61569
0.5
0.43529
0.36471
0.42941
0.53922
0.66078
0.78039
0.87059
0.92157
0.94118
0.95686
0.95686
0.95686
0.95686
0.95098
0.94706
0.95098
0.94118
0.94706
0.93725
0.94118
0.94706
0.93725
0.93725
0.93725
0.93725
0.93725
0.93137
0.93725
0.94118
0.93725
0.94118
0.93725
0.94118
0.94706
0.94118
0.94118
0.94706
0.94118
0.93725
0.93137
0.93137
0.93137
0.93137
0.91569
0.92157
0.91176
0.91176
0.90196
0.90588
0.89608
0.89608
0.8902
0.8902
0.8902
0.8902
0.88627
0.88627
0.88627
0.88039
0.88627
0.87647
0.88039
0.87059
0.86667
0.86078
0.86078
0.86078
0.85686
0.85686
0.85686
0.85686
0.85686
0.85686
0.85686
0.86078
0.86078
0.86078
0.87059
0.87059
0.87647
0.87647
0.87647
0.88627
0.88627
0.88627
0.88039
0.88039
0.87647
0.88039
0.88039
0.88627
0.8902
0.90588
0.90196
0.90588
0.91569
0.92549
0.92157
0.91176
0.8902
0.88627
0.87059
0.87059
0.86078
0.86078
0.8451
0.71569
0.83137
0.83529
0.79608
0.7451
0.7
0.67647
0.67059
0.62549
0.49412
0.42941
0.36471
0.41569
0.53529
0.6451
0.77647
0.85098
0.90196
0.93137
0.95098
0.95686
0.95098
0.94706
0.94706
0.94118
0.94118
0.93725
0.93725
0.93137
0.93137
0.93137
0.93137
0.93137
0.93137
0.93137
0.93137
0.93137
0.93137
0.93137
0.93137
0.93725
0.94118
0.93725
0.93725
0.94118
0.94118
0.94118
0.93725
0.93725
0.93137
0.92549
0.92549
0.92157
0.91176
0.91176
0.90588
0.90588
0.89608
0.8902
0.8902
0.88627
0.88627
0.88627
0.88627
0.88627
0.88039
0.87059
0.87059
0.86667
0.86667
0.86078
0.86078
0.85686
0.85098
0.84118
0.8451
0.84118
0.83529
0.83529
0.83137
0.83529
0.83137
0.83529
0.83529
0.84118
0.8451
0.85098
0.85098
0.86078
0.85686
0.86078
0.86078
0.86078
0.86078
0.86078
0.86078
0.86667
0.86667
0.87059
0.87647
0.87059
0.88039
0.88627
0.89608
0.90588
0.90588
0.91176
0.92549
0.92157
0.91569
0.89608
0.88627
0.86667
0.86667
0.86078
0.85686
0.85686
0.85098
0.83529
0.7098
0.82157
0.82549
0.77647
0.72549
0.6902
0.68039
0.67647
0.61569
0.5
0.4098
0.31961
0.37451
0.48431
0.6
0.73529
0.83137
0.90196
0.93137
0.95098
0.95098
0.95098
0.94706
0.94706
0.94706
0.95098
0.94118
0.94118
0.93137
0.93137
0.93137
0.93137
0.92157
0.92157
0.92157
0.92549
0.92157
0.92157
0.92549
0.92549
0.93137
0.93137
0.93725
0.94118
0.95098
0.94118
0.95098
0.94706
0.95098
0.94706
0.94118
0.93725
0.94118
0.93137
0.93137
0.92549
0.92157
0.91176
0.91176
0.90588
0.90588
0.90588
0.90196
0.90588
0.89608
0.90196
0.8902
0.89608
0.88627
0.88039
0.87059
0.87059
0.86667
0.86078
0.85098
0.8451
0.84118
0.8451
0.83529
0.83529
0.83529
0.84118
0.84118
0.8451
0.85098
0.85098
0.85686
0.86078
0.86078
0.86078
0.86667
0.87059
0.87059
0.87059
0.87647
0.87059
0.88039
0.87647
0.88039
0.88627
0.88627
0.89608
0.90588
0.91569
0.91569
0.92157
0.93137
0.93137
0.91569
0.89608
0.88627
0.86667
0.86667
0.86078
0.86078
0.85098
0.81176
0.74118
0.83529
0.81176
0.7549
0.7
0.67059
0.66471
0.65098
0.5549
0.46471
0.36471
0.32353
0.42941
0.53922
0.67059
0.78039
0.87059
0.92157
0.94118
0.95098
0.95098
0.94706
0.94706
0.95686
0.94118
0.94706
0.93725
0.93725
0.93137
0.93137
0.93137
0.93137
0.92549
0.93137
0.92549
0.93137
0.93137
0.93725
0.93137
0.93725
0.94118
0.94706
0.95098
0.95098
0.95686
0.95686
0.95098
0.94706
0.95098
0.94706
0.94118
0.93725
0.93137
0.92549
0.92549
0.91569
0.91176
0.91176
0.91176
0.89608
0.89608
0.8902
0.8902
0.8902
0.8902
0.88627
0.88627
0.88039
0.87647
0.87647
0.87059
0.86667
0.86078
0.85686
0.85098
0.8451
0.85098
0.8451
0.84118
0.8451
0.8451
0.85098
0.85098
0.85686
0.85686
0.86078
0.86078
0.86667
0.87059
0.87647
0.88039
0.87647
0.88039
0.88039
0.88627
0.88627
0.88627
0.88627
0.88627
0.88627
0.8902
0.8902
0.90588
0.91569
0.91569
0.92157
0.93725
0.93137
0.93137
0.90588
0.89608
0.88039
0.87647
0.87059
0.87647
0.86667
0.8451
0.7549
0.83529
0.82549
0.78039
0.72157
0.68627
0.66471
0.65098
0.57451
0.47059
0.39412
0.33529
0.42941
0.53922
0.66471
0.78039
0.86078
0.91176
0.93725
0.94706
0.95098
0.94706
0.94706
0.94118
0.93725
0.94118
0.93725
0.93725
0.93725
0.93137
0.93137
0.93725
0.93137
0.93725
0.93137
0.93725
0.93137
0.94118
0.93725
0.94118
0.94118
0.94706
0.94706
0.94706
0.94706
0.95686
0.95686
0.95686
0.94118
0.94706
0.94118
0.93725
0.93137
0.93137
0.92549
0.91569
0.91176
0.90588
0.90588
0.90196
0.89608
0.8902
0.8902
0.88627
0.8902
0.88627
0.88627
0.88627
0.88039
0.87059
0.87059
0.86667
0.86078
0.85098
0.85098
0.8451
0.8451
0.8451
0.84118
0.83529
0.83529
0.83529
0.83529
0.8451
0.85098
0.86078
0.85686
0.86078
0.86078
0.87647
0.87059
0.87647
0.87059
0.87647
0.87059
0.87647
0.87059
0.87647
0.87059
0.87647
0.87647
0.88039
0.88627
0.89608
0.90588
0.90588
0.92157
0.92549
0.92157
0.90588
0.89608
0.88627
0.87059
0.86667
0.87059
0.86078
0.86667
0.85098
0.80588
0.72157
0.83529
0.81176
0.76667
0.71569
0.68039
0.66078
0.6451
0.53529
0.46078
0.37451
0.3451
0.46078
0.56471
0.68627
0.79608
0.87647
0.92157
0.94706
0.94706
0.95098
0.94706
0.95098
0.94118
0.94118
0.93725
0.94118
0.93137
0.93137
0.93137
0.93137
0.92549
0.93137
0.93137
0.92549
0.92549
0.93137
0.93137
0.93137
0.93725
0.93137
0.94706
0.94706
0.94706
0.95098
0.95686
0.95098
0.95098
0.94118
0.94706
0.94706
0.94118
0.93137
0.93725
0.93137
0.93137
0.92157
0.91569
0.91176
0.90588
0.91176
0.90588
0.90588
0.90196
0.89608
0.8902
0.88627
0.88039
0.88039
0.87647
0.87059
0.86078
0.85686
0.85098
0.8451
0.83529
0.83529
0.83529
0.83529
0.83529
0.83529
0.83529
0.84118
0.8451
0.85098
0.85686
0.85686
0.86078
0.86078
0.86078
0.86078
0.86667
0.86667
0.87059
0.87059
0.87647
0.88039
0.88627
0.88627
0.88627
0.88627
0.90196
0.90588
0.92157
0.92157
0.93725
0.94118
0.93137
0.91176
0.8902
0.87059
0.86667
0.86078
0.86078
0.86078
0.84118
0.74118
0.83137
0.84118
0.7902
0.73529
0.68627
0.67059
0.68039
0.64118
0.5098
0.41961
0.2902
0.27843
0.41961
0.5451
0.68039
0.8
0.8902
0.92549
0.94118
0.94706
0.95098
0.94706
0.95098
0.94706
0.94118
0.93725
0.93137
0.93137
0.93137
0.93137
0.93137
0.92549
0.93137
0.92549
0.93137
0.93137
0.93137
0.93137
0.93725
0.94118
0.93725
0.94706
0.95098
0.95098
0.95686
0.95686
0.95686
0.95686
0.95686
0.95098
0.94706
0.94118
0.93725
0.93137
0.92549
0.92549
0.91176
0.91176
0.90588
0.90588
0.90196
0.90196
0.8902
0.8902
0.88627
0.88627
0.87647
0.87647
0.86667
0.86078
0.86078
0.85098
0.8451
0.8451
0.83529
0.83529
0.83529
0.83529
0.83529
0.83529
0.83529
0.83529
0.83529
0.84118
0.85686
0.85686
0.86078
0.86078
0.86078
0.86078
0.86667
0.86667
0.87059
0.87059
0.87647
0.87647
0.87647
0.88039
0.87647
0.88039
0.88039
0.8902
0.90588
0.91176
0.91176
0.92549
0.93137
0.93137
0.90588
0.8902
0.87647
0.87059
0.86078
0.86078
0.85686
0.8451
0.7098
0.83529
0.84118
0.78627
0.73137
0.68627
0.66471
0.66471
0.60588
0.4902
0.41961
0.32941
0.3902
0.5
0.61569
0.74118
0.84118
0.90588
0.93725
0.95098
0.95686
0.95686
0.95686
0.95098
0.95098
0.94706
0.94706
0.94706
0.94118
0.93137
0.93137
0.93137
0.93137
0.93137
0.93137
0.93137
0.93137
0.93137
0.93137
0.93725
0.93725
0.94706
0.94118
0.94706
0.95098
0.95686
0.95686
0.95686
0.95686
0.95098
0.94706
0.94118
0.93137
0.93137
0.92549
0.92549
0.91569
0.91176
0.90588
0.90588
0.90588
0.90196
0.90196
0.90196
0.90196
0.89608
0.89608
0.88627
0.88627
0.88039
0.87647
0.87059
0.87059
0.86078
0.86078
0.85686
0.85686
0.85098
0.8451
0.8451
0.8451
0.85098
0.8451
0.85098
0.85686
0.86078
0.86078
0.86078
0.86667
0.87059
0.87059
0.87647
0.87059
0.87647
0.87059
0.87647
0.87647
0.88039
0.87647
0.88039
0.88627
0.88627
0.90196
0.90588
0.91176
0.90588
0.93137
0.93137
0.93137
0.91176
0.89608
0.88627
0.87059
0.86667
0.86667
0.86078
0.85098
0.69608
0.82549
0.84118
0.8
0.7451
0.7
0.66471
0.66471
0.62549
0.5
0.43529
0.3451
0.32941
0.48431
0.60588
0.72549
0.83137
0.90196
0.93137
0.95098
0.95686
0.95098
0.95686
0.95098
0.95686
0.95098
0.94706
0.94706
0.94118
0.94118
0.94118
0.93725
0.93725
0.93137
0.93725
0.94118
0.94118
0.94118
0.94706
0.94118
0.94706
0.95098
0.95686
0.95686
0.95686
0.96078
0.96078
0.96078
0.95686
0.95686
0.95686
0.95098
0.93725
0.93137
0.92549
0.92549
0.92157
0.91569
0.91176
0.90588
0.90588
0.90588
0.89608
0.89608
0.8902
0.8902
0.8902
0.8902
0.88627
0.88627
0.87647
0.87059
0.86667
0.86078
0.86078
0.85098
0.85098
0.85098
0.85098
0.8451
0.85098
0.85098
0.85686
0.85686
0.86078
0.86078
0.86078
0.86078
0.86078
0.86078
0.86667
0.86667
0.86667
0.87647
0.87647
0.88039
0.87647
0.88039
0.88039
0.88627
0.88627
0.88627
0.88627
0.90588
0.91176
0.92157
0.92549
0.93137
0.93137
0.91569
0.90196
0.88627
0.87059
0.86667
0.86078
0.86078
0.8451
0.76667
0.7549
0.83529
0.80588
0.7451
0.70588
0.67647
0.6902
0.66078
0.52941
0.44902
0.33922
0.30392
0.43922
0.55098
0.68039
0.79608
0.88627
0.92549
0.95098
0.95686
0.95686
0.95686
0.95686
0.95098
0.94706
0.95098
0.94118
0.93725
0.94118
0.93725
0.93137
0.93725
0.93137
0.93725
0.93137
0.93725
0.93137
0.94118
0.94118
0.94706
0.94118
0.95098
0.95098
0.95686
0.96078
0.95686
0.96078
0.95686
0.96667
0.95686
0.95686
0.95098
0.94706
0.94118
0.94706
0.93137
0.93137
0.92157
0.91569
0.91176
0.91176
0.90588
0.90196
0.89608
0.89608
0.88627
0.88627
0.88039
0.87647
0.86667
0.86667
0.86078
0.85686
0.85098
0.8451
0.83529
0.83529
0.83529
0.83529
0.84118
0.84118
0.8451
0.8451
0.8451
0.8451
0.86078
0.86667
0.89608
0.94118
0.99608
1.0314
1.0412
0.99216
0.98627
1.0824
1.202
1.3431
1.2373
1.0157
0.7451
0.63529
0.6549
0.72549
0.77059
0.80588
0.83137
0.8451
0.84118
0.83137
0.80588
0.7902
0.77059
0.76667
0.7549
0.76078
0.7451
0.74118
0.73529
0.73137
0.72157
0.7098
0.69608
0.69608
0.68039
0.67647
0.67059
0.66078
0.65098
0.65098
0.6549
0.66078
0.67059
0.67059
0.6902
0.7
0.72157
0.72549
0.7451
0.7549
0.76667
0.78039
0.7902
0.8
0.81176
0.82157
0.82549
0.83137
0.83529
0.84118
0.83529
0.8451
0.84118
0.8451
0.85686
0.86078
0.86667
0.88039
0.88627
0.89608
0.90588
0.91176
0.92157
0.93137
0.93137
0.93725
0.94118
0.94706
0.94118
0.94706
0.94118
0.94706
0.95098
0.94706
0.94706
0.94706
0.94118
0.94706
0.94118
0.94118
0.94706
0.93725
0.94118
0.94118
0.94118
0.93725
0.94118
0.93137
0.93725
0.92549
0.92549
0.92157
0.92549
0.91569
0.92549
0.92157
0.92549
0.91176
0.91569
0.91569
0.91569
0.91176
0.91176
0.90588
0.90588
0.91176
0.90588
0.90588
0.90588
0.90588
0.89608
0.89608
0.89608
0.90196
0.89608
0.89608
0.89608
0.89608
0.8902
0.89608
0.90196
0.91569
0.92549
0.92549
0.93137
0.94118
0.94118
0.93725
0.91569
0.90588
0.88627
0.87647
0.87059
0.87059
0.86667
0.8451
0.74118
0.83529
0.8451
0.78039
0.73137
0.6902
0.68627
0.67059
0.57059
0.47451
0.38431
0.33922
0.44902
0.56078
0.68627
0.7902
0.87647
0.92157
0.94706
0.95686
0.95686
0.95686
0.95098
0.95098
0.94706
0.94118
0.94118
0.94118
0.93725
0.94118
0.93725
0.94118
0.93137
0.93137
0.93137
0.93725
0.93137
0.94118
0.93725
0.94706
0.94706
0.95098
0.95098
0.95686
0.95686
0.96078
0.96078
0.95686
0.95686
0.95098
0.94706
0.94118
0.94118
0.93137
0.93137
0.93137
0.92549
0.91569
0.91176
0.90588
0.90588
0.90196
0.8902
0.88627
0.8902
0.88627
0.88627
0.88039
0.87647
0.86667
0.86667
0.86078
0.85686
0.8451
0.84118
0.83529
0.83529
0.83137
0.82549
0.82549
0.82549
0.83137
0.83137
0.83529
0.83529
0.83529
0.84118
0.85098
0.85686
0.86078
0.86078
0.86667
0.86667
0.86078
0.87059
0.87647
0.87647
0.87647
0.87059
0.86667
0.87647
0.88039
0.89608
0.90196
0.90588
0.90588
0.92157
0.91176
0.91176
0.89608
0.88627
0.86667
0.86078
0.85686
0.86078
0.85098
0.83137
0.7451
0.83137
0.81569
0.76667
0.71569
0.67647
0.65098
0.6549
0.57451
0.47059
0.39412
0.31961
0.40392
0.5098
0.63529
0.7451
0.8451
0.90196
0.93137
0.94706
0.94706
0.94118
0.94706
0.94118
0.94706
0.94118
0.94118
0.94706
0.94118
0.93725
0.93725
0.93137
0.93137
0.93137
0.93137
0.93137
0.93137
0.93137
0.93137
0.93137
0.93137
0.93725
0.94118
0.93725
0.94118
0.94706
0.94118
0.94706
0.94118
0.94706
0.94118
0.93725
0.93137
0.93137
0.92549
0.91569
0.91176
0.90588
0.90588
0.89608
0.89608
0.8902
0.88627
0.88627
0.88627
0.88039
0.88627
0.87647
0.87647
0.87059
0.86667
0.86078
0.86078
0.85098
0.85098
0.84118
0.84118
0.83529
0.83137
0.83529
0.83137
0.83529
0.84118
0.8451
0.8451
0.85098
0.85098
0.86078
0.86078
0.86078
0.86078
0.86667
0.86667
0.87059
0.86667
0.86667
0.86667
0.86667
0.86667
0.87059
0.87647
0.88627
0.89608
0.90588
0.91569
0.91176
0.93137
0.93137
0.92549
0.90588
0.88627
0.87647
0.86667
0.86078
0.86078
0.8451
0.81569
0.70588
0.84118
0.83137
0.78039
0.72549
0.6902
0.68627
0.69608
0.60588
0.49412
0.38039
0.28431
0.3549
0.44902
0.58039
0.71569
0.83137
0.90196
0.93137
0.94118
0.94706
0.94118
0.94706
0.93725
0.93137
0.93137
0.93137
0.92549
0.92549
0.91569
0.92157
0.91176
0.91176
0.91176
0.91569
0.90588
0.91176
0.92157
0.92549
0.93137
0.93137
0.94118
0.94706
0.95686
0.96078
0.96078
0.96078
0.96667
0.96078
0.96078
0.95686
0.95686
0.95098
0.94706
0.93725
0.94118
0.93137
0.92549
0.91569
0.91569
0.91176
0.91176
0.90588
0.90196
0.90588
0.82157
0.78627
0.82549
0.86667
0.89608
0.90588
0.8902
0.88627
0.87647
0.87647
0.86078
0.86078
0.85686
0.85686
0.8451
0.85098
0.8451
0.85098
0.85098
0.86078
0.86078
0.86078
0.86078
0.86667
0.86667
0.87059
0.87059
0.87647
0.88627
0.88039
0.88627
0.88627
0.88627
0.88627
0.88627
0.88627
0.89608
0.90588
0.92157
0.91569
0.93137
0.93725
0.93137
0.92157
0.90196
0.88627
0.87647
0.86667
0.86078
0.86667
0.84118
0.69608
0.82549
0.84118
0.79608
0.73529
0.68627
0.66471
0.66078
0.63529
0.50588
0.43922
0.33529
0.31373
0.46078
0.57451
0.7
0.81176
0.8902
0.93137
0.95098
0.95686
0.95686
0.95686
0.95098
0.95098
0.94706
0.94118
0.94118
0.93725
0.94118
0.93137
0.93725
0.93137
0.93725
0.93137
0.93137
0.93137
0.93137
0.93137
0.94118
0.93725
0.94118
0.94706
0.94118
0.95686
0.95686
0.95686
0.95686
0.96078
0.95686
0.94706
0.94118
0.94118
0.93137
0.93137
0.92549
0.92157
0.91176
0.91569
0.90588
0.90588
0.89608
0.90196
0.8902
0.89608
0.8902
0.8902
0.88627
0.88039
0.87647
0.87059
0.86667
0.86078
0.86078
0.85686
0.86667
0.85686
0.8451
0.8451
0.84118
0.84118
0.8451
0.84118
0.8451
0.85098
0.86078
0.85686
0.86078
0.86078
0.86667
0.86667
0.87647
0.87647
0.87647
0.87647
0.87647
0.87647
0.88039
0.87647
0.87647
0.88627
0.88627
0.90196
0.91176
0.91569
0.91176
0.93137
0.93137
0.93137
0.91176
0.89608
0.88039
0.87647
0.86078
0.86078
0.85686
0.83529
0.7
0.83137
0.83529
0.78039
0.72549
0.68627
0.66078
0.66078
0.6
0.48431
0.4098
0.32941
0.39412
0.49412
0.61961
0.75098
0.8451
0.91176
0.94118
0.95098
0.95686
0.95098
0.95686
0.95098
0.95098
0.94706
0.95098
0.94706
0.94706
0.93725
0.93725
0.93725
0.93137
0.93137
0.93137
0.93725
0.93137
0.93725
0.93137
0.94118
0.94706
0.94706
0.94706
0.95686
0.95686
0.95686
0.95686
0.95686
0.95098
0.95098
0.94118
0.94118
0.93137
0.93137
0.92549
0.92157
0.91569
0.91176
0.90588
0.90588
0.90196
0.89608
0.89608
0.8902
0.89608
0.88627
0.88627
0.88627
0.88039
0.87647
0.87647
0.87059
0.87059
0.86078
0.86078
0.85098
0.85098
0.84118
0.84118
0.84118
0.8451
0.85098
0.8451
0.85098
0.85098
0.86078
0.86078
0.86078
0.86078
0.86667
0.86667
0.87647
0.87647
0.88039
0.87647
0.88039
0.88039
0.88627
0.88627
0.88627
0.88627
0.88627
0.90196
0.91176
0.91569
0.91176
0.93137
0.93725
0.93137
0.91176
0.88627
0.87059
0.86078
0.86078
0.86078
0.85098
0.80588
0.68039
0.83529
0.82157
0.77059
0.71569
0.68039
0.67059
0.66471
0.58039
0.48039
0.38431
0.3098
0.38431
0.49412
0.61569
0.74118
0.8451
0.91176
0.93725
0.94706
0.95098
0.94706
0.94706
0.94706
0.94118
0.94118
0.94118
0.93725
0.93725
0.93137
0.93137
0.93137
0.93137
0.93137
0.93137
0.93137
0.93137
0.93137
0.93725
0.93725
0.94118
0.94706
0.95098
0.95686
0.95098
0.95686
0.95686
0.95686
0.95686
0.95686
0.95098
0.94706
0.93725
0.93725
0.93137
0.93137
0.92549
0.92157
0.91176
0.91176
0.90588
0.90588
0.90196
0.89608
0.88627
0.88627
0.88627
0.88627
0.88039
0.87647
0.87059
0.86667
0.87059
0.86078
0.85098
0.8451
0.8451
0.83529
0.83529
0.83529
0.84118
0.83529
0.8451
0.84118
0.8451
0.85098
0.86078
0.85686
0.86078
0.86078
0.86078
0.86667
0.87059
0.87059
0.87059
0.87647
0.87059
0.88039
0.87647
0.88039
0.88039
0.88627
0.8902
0.90588
0.91176
0.92157
0.93137
0.93725
0.93137
0.91569
0.8902
0.88039
0.86667
0.86078
0.85686
0.85098
0.83529
0.7098
0.83137
0.83529
0.78627
0.72549
0.68039
0.67059
0.67647
0.61569
0.5
0.41569
0.3098
0.3549
0.4549
0.57451
0.7098
0.82157
0.90196
0.93137
0.95098
0.95686
0.95686
0.95686
0.95686
0.95098
0.95098
0.94706
0.94706
0.94118
0.94118
0.93725
0.93725
0.93725
0.93137
0.93725
0.93137
0.93725
0.93137
0.93725
0.94118
0.95098
0.94706
0.95686
0.95686
0.95686
0.96078
0.96078
0.96078
0.95686
0.95686
0.95098
0.94118
0.94118
0.93137
0.93137
0.92549
0.92157
0.91569
0.90588
0.90588
0.90588
0.90196
0.89608
0.90196
0.89608
0.8902
0.88627
0.88627
0.88627
0.88039
0.86667
0.86667
0.86078
0.86078
0.85098
0.85686
0.85098
0.84118
0.84118
0.84118
0.83529
0.83529
0.83529
0.84118
0.85686
0.85686
0.86078
0.86667
0.87647
0.87059
0.88039
0.87647
0.88039
0.88039
0.88627
0.88627
0.88627
0.88627
0.88627
0.88627
0.88627
0.8902
0.90588
0.91569
0.92157
0.93137
0.94118
0.94706
0.93725
0.92157
0.90588
0.8902
0.88627
0.87647
0.87059
0.86078
0.82157
0.7
0.8451
0.85098
0.78039
0.73137
0.6902
0.67647
0.68039
0.5902
0.4902
0.40392
0.33922
0.42549
0.53529
0.6549
0.77647
0.87059
0.92549
0.95098
0.96078
0.96078
0.95686
0.95686
0.95686
0.95098
0.95098
0.94706
0.94118
0.94706
0.94118
0.93725
0.93725
0.93137
0.93137
0.93137
0.93137
0.93725
0.93725
0.93725
0.94118
0.94706
0.94118
0.94706
0.94706
0.95098
0.95686
0.94706
0.94706
0.94118
0.94118
0.94118
0.93137
0.93137
0.93137
0.92549
0.91569
0.91569
0.90588
0.90588
0.89608
0.90196
0.90196
0.90196
0.89608
0.8902
0.88627
0.88627
0.88039
0.87647
0.87647
0.87059
0.87059
0.86078
0.86078
0.85686
0.85686
0.85098
0.85098
0.84118
0.84118
0.84118
0.8451
0.84118
0.84118
0.85098
0.86078
0.86667
0.86078
0.87059
0.87059
0.87059
0.87647
0.88039
0.87647
0.88627
0.88627
0.88627
0.88627
0.88627
0.88627
0.88627
0.89608
0.90588
0.91176
0.91569
0.91569
0.93137
0.93137
0.93137
0.90588
0.89608
0.88039
0.87059
0.86667
0.86667
0.87059
0.84118
0.7451
0.83529
0.82549
0.77647
0.72549
0.68039
0.66471
0.6549
0.58039
0.46471
0.39412
0.31961
0.40392
0.50588
0.62941
0.75098
0.85098
0.91176
0.93725
0.94706
0.95098
0.94706
0.94118
0.94706
0.93725
0.94118
0.93137
0.93137
0.93137
0.93137
0.92549
0.93137
0.92549
0.93137
0.93137
0.93137
0.93137
0.93137
0.93725
0.93725
0.94706
0.94706
0.94706
0.95686
0.95686
0.96078
0.96667
0.95686
0.95686
0.95686
0.95098
0.94706
0.93725
0.93137
0.92549
0.92157
0.91569
0.91176
0.90588
0.90588
0.90196
0.90196
0.90588
0.90196
0.90196
0.8902
0.88627
0.8902
0.88627
0.88039
0.88039
0.87647
0.87059
0.86667
0.86078
0.86078
0.85098
0.85686
0.85098
0.8451
0.8451
0.8451
0.85098
0.86078
0.86078
0.86078
0.86078
0.86667
0.86667
0.87647
0.87647
0.88039
0.87647
0.88039
0.88039
0.88039
0.88627
0.88627
0.88627
0.88627
0.88627
0.88627
0.90588
0.91176
0.92549
0.92157
0.94118
0.94706
0.93725
0.91176
0.89608
0.88039
0.87059
0.86078
0.86078
0.85686
0.83529
0.73137
0.84118
0.85098
0.8
0.73529
0.6902
0.68039
0.69608
0.65098
0.51961
0.42941
0.30392
0.2902
0.42549
0.5451
0.68627
0.81176
0.8902
0.93137
0.95098
0.95686
0.95686
0.95686
0.95098
0.95098
0.94706
0.95686
0.94706
0.94706
0.94706
0.94118
0.93725
0.93725
0.93725
0.93725
0.94118
0.93137
0.94706
0.94118
0.94706
0.94706
0.95098
0.95686
0.96078
0.95686
0.96078
0.96078
0.96667
0.96667
0.96078
0.95686
0.95686
0.94706
0.94706
0.93725
0.93725
0.93137
0.93137
0.92157
0.92157
0.91569
0.91176
0.90588
0.90196
0.90196
0.89608
0.89608
0.8902
0.88627
0.88627
0.87647
0.86667
0.86667
0.86078
0.85686
0.8451
0.84118
0.83529
0.8451
0.84118
0.8451
0.8451
0.85098
0.85686
0.85098
0.86078
0.86078
0.86078
0.86078
0.86667
0.86078
0.87059
0.87059
0.87647
0.87647
0.88039
0.87647
0.88627
0.88627
0.88627
0.88627
0.89608
0.89608
0.91176
0.92157
0.92549
0.93137
0.94706
0.95098
0.92157
0.90588
0.8902
0.88039
0.87059
0.86667
0.86078
0.8451
0.76078
0.7549
0.84118
0.80588
0.74118
0.6902
0.66078
0.67059
0.64118
0.51961
0.4451
0.33922
0.3098
0.4451
0.5549
0.68627
0.79608
0.87647
0.92549
0.94706
0.95098
0.95098
0.95686
0.94706
0.95098
0.94706
0.94706
0.94118
0.94118
0.93137
0.93725
0.93137
0.93725
0.93137
0.93137
0.93137
0.93725
0.93137
0.93725
0.93137
0.93725
0.94118
0.94118
0.94706
0.94118
0.95098
0.95098
0.95686
0.95686
0.95686
0.94706
0.94118
0.93725
0.93137
0.92549
0.92549
0.91569
0.91569
0.90588
0.91176
0.90588
0.90196
0.89608
0.89608
0.8902
0.8902
0.89608
0.88627
0.88039
0.87647
0.88039
0.87059
0.86667
0.86078
0.86078
0.85686
0.85686
0.8451
0.85098
0.85098
0.85098
0.8451
0.85686
0.85686
0.86078
0.86078
0.86667
0.86667
0.87059
0.86078
0.86667
0.87059
0.87647
0.87647
0.88039
0.88627
0.87647
0.87647
0.87647
0.88039
0.88039
0.88627
0.90196
0.91176
0.90588
0.91569
0.92549
0.93137
0.92549
0.91176
0.8902
0.88039
0.87059
0.87059
0.87059
0.86667
0.8451
0.72549
0.83529
0.84118
0.78039
0.73529
0.69608
0.67059
0.66471
0.6
0.4902
0.41961
0.3451
0.41961
0.53922
0.65098
0.77059
0.86078
0.91569
0.94118
0.95686
0.95686
0.95686
0.95686
0.95686
0.95686
0.95686
0.95098
0.95098
0.94706
0.94706
0.94706
0.94118
0.94118
0.94706
0.95098
0.94118
0.94706
0.94706
0.95098
0.95686
0.95686
0.95098
0.96078
0.95686
0.95686
0.95686
0.95686
0.94706
0.95098
0.93725
0.94706
0.94118
0.93137
0.92549
0.92157
0.91569
0.91176
0.90588
0.90588
0.90196
0.89608
0.90588
0.89608
0.89608
0.8902
0.89608
0.90196
0.8902
0.89608
0.8902
0.88627
0.88627
0.87647
0.87059
0.86667
0.86667
0.86078
0.86078
0.86078
0.86078
0.85686
0.85686
0.86078
0.86078
0.86078
0.86667
0.87059
0.87059
0.87647
0.87647
0.88039
0.88039
0.88627
0.88627
0.8902
0.89608
0.8902
0.88627
0.8902
0.89608
0.89608
0.90588
0.91569
0.92549
0.92157
0.93137
0.93137
0.93725
0.93137
0.91569
0.90588
0.8902
0.88627
0.88627
0.88039
0.87059
0.82549
0.71569
0.8451
0.83137
0.7902
0.74118
0.7098
0.69608
0.67647
0.58039
0.48431
0.41569
0.37059
0.48039
0.5902
0.70588
0.82157
0.88627
0.91569
0.94118
0.95686
0.95686
0.95686
0.95098
0.95686
0.94706
0.95098
0.95098
0.94706
0.93725
0.94118
0.93725
0.94118
0.94118
0.93725
0.93725
0.94118
0.93725
0.93725
0.94118
0.93725
0.94706
0.94118
0.94706
0.94706
0.95686
0.95686
0.95098
0.94706
0.95098
0.93725
0.94118
0.93725
0.93137
0.92549
0.92549
0.92157
0.91569
0.90588
0.90196
0.90196
0.90196
0.8902
0.89608
0.89608
0.89608
0.89608
0.8902
0.8902
0.8902
0.88627
0.88627
0.88039
0.87059
0.86078
0.86078
0.86078
0.85686
0.85686
0.8451
0.85098
0.8451
0.86078
0.86078
0.86078
0.86078
0.86078
0.87059
0.87647
0.88039
0.87647
0.88039
0.87647
0.88627
0.88039
0.88627
0.88039
0.88039
0.87647
0.88627
0.88039
0.88627
0.88627
0.89608
0.90588
0.91569
0.91569
0.92549
0.93725
0.94118
0.92549
0.90588
0.8902
0.88039
0.87059
0.87059
0.87059
0.85098
0.70588
0.82157
0.84118
0.80588
0.7549
0.70588
0.68627
0.68039
0.6549
0.52549
0.46078
0.3549
0.33922
0.47059
0.59608
0.72549
0.83529
0.90196
0.93725
0.95098
0.96078
0.96078
0.96078
0.95686
0.95686
0.95686
0.95098
0.95686
0.94706
0.95098
0.94118
0.94118
0.93725
0.94118
0.94118
0.94118
0.93725
0.94706
0.94118
0.94706
0.95098
0.95098
0.95098
0.95098
0.95686
0.95686
0.95686
0.95686
0.95686
0.95098
0.95098
0.94706
0.93725
0.93137
0.93137
0.92549
0.92549
0.91569
0.92157
0.91176
0.91176
0.91176
0.91176
0.90588
0.90588
0.90196
0.90196
0.90196
0.89608
0.90196
0.8902
0.88627
0.88627
0.88039
0.87647
0.87059
0.86667
0.86667
0.86078
0.85686
0.85686
0.86078
0.85686
0.86078
0.86078
0.87059
0.87059
0.88039
0.88039
0.88627
0.88627
0.88627
0.88627
0.8902
0.8902
0.8902
0.8902
0.8902
0.8902
0.88627
0.88627
0.88627
0.90588
0.91176
0.92157
0.91569
0.93137
0.93137
0.93137
0.91569
0.90588
0.88627
0.88039
0.87647
0.87647
0.86667
0.85098
0.73529
0.83529
0.84118
0.8
0.7451
0.7
0.67647
0.66471
0.6098
0.48431
0.42549
0.35882
0.42549
0.5451
0.6549
0.78039
0.86667
0.91176
0.94118
0.95098
0.95686
0.95686
0.95686
0.95098
0.94706
0.94706
0.94706
0.94706
0.94706
0.94118
0.93725
0.94118
0.93725
0.94118
0.93725
0.93725
0.93137
0.93725
0.93137
0.94118
0.93725
0.94118
0.94706
0.94118
0.94118
0.94706
0.94706
0.94706
0.94118
0.94118
0.94706
0.93137
0.92549
0.92157
0.91569
0.91176
0.91176
0.90588
0.90196
0.89608
0.8902
0.88627
0.88627
0.88627
0.89608
0.88627
0.8902
0.88627
0.88039
0.87647
0.87647
0.86667
0.86667
0.86078
0.86078
0.85098
0.85098
0.84118
0.8451
0.85098
0.8451
0.85098
0.8451
0.85098
0.85098
0.85686
0.85686
0.86078
0.86078
0.86667
0.86667
0.87059
0.87059
0.87647
0.88039
0.88039
0.87647
0.88039
0.87647
0.88039
0.88039
0.88627
0.8902
0.90588
0.90588
0.90588
0.91569
0.92549
0.92549
0.91176
0.90196
0.88039
0.87059
0.86667
0.86667
0.86078
0.8451
0.76078
0.82157
0.83529
0.8
0.7451
0.70588
0.67059
0.66471
0.62941
0.49412
0.43529
0.3549
0.3451
0.50588
0.6098
0.74118
0.83529
0.8902
0.92549
0.94118
0.94706
0.94118
0.94706
0.94118
0.94118
0.93725
0.93725
0.93137
0.93137
0.93137
0.93137
0.93137
0.93137
0.92549
0.92549
0.92549
0.92549
0.92549
0.93137
0.93725
0.93137
0.94118
0.93725
0.94118
0.94118
0.94706
0.94706
0.94706
0.94118
0.94706
0.93725
0.93137
0.92549
0.93137
0.91569
0.91176
0.90588
0.90588
0.90196
0.8902
0.88627
0.88627
0.88627
0.88627
0.88627
0.88039
0.88627
0.87647
0.87647
0.87059
0.86667
0.86078
0.86078
0.85098
0.8451
0.84118
0.83529
0.83137
0.83529
0.82549
0.83529
0.83529
0.83529
0.83529
0.83529
0.8451
0.8451
0.85098
0.85686
0.86078
0.85686
0.86078
0.86078
0.86078
0.86078
0.86667
0.86667
0.86667
0.86667
0.87647
0.87059
0.88039
0.88627
0.90588
0.91176
0.91569
0.92157
0.93137
0.93137
0.91569
0.8902
0.88039
0.86667
0.86078
0.86078
0.85686
0.8451
0.69608
0.82157
0.83529
0.8
0.74118
0.7
0.68039
0.6902
0.66078
0.51961
0.43922
0.32941
0.3
0.43529
0.5451
0.68039
0.78627
0.87647
0.92157
0.93725
0.94118
0.94118
0.94118
0.94118
0.93725
0.93725
0.94118
0.93137
0.93137
0.93137
0.93137
0.92549
0.92549
0.92549
0.93137
0.92157
0.93137
0.93137
0.93137
0.93137
0.93725
0.93137
0.94118
0.94706
0.95098
0.95686
0.95686
0.95686
0.95686
0.95686
0.95686
0.94706
0.94118
0.94706
0.93137
0.93137
0.92549
0.92157
0.91176
0.91176
0.90588
0.90588
0.89608
0.8902
0.88627
0.8902
0.88627
0.88627
0.88627
0.88627
0.87647
0.87647
0.86667
0.86078
0.86078
0.85686
0.8451
0.8451
0.84118
0.83529
0.83529
0.83529
0.84118
0.84118
0.85686
0.85686
0.86078
0.86078
0.86078
0.86078
0.86667
0.86667
0.87647
0.87647
0.87647
0.87647
0.87647
0.87647
0.88039
0.88039
0.88039
0.88039
0.88627
0.90196
0.91176
0.91569
0.92157
0.93137
0.93137
0.92549
0.90196
0.88039
0.86078
0.86078
0.86078
0.86078
0.84118
0.74118
0.71569
0.83529
0.80588
0.7451
0.69608
0.66471
0.66078
0.65098
0.53529
0.4549
0.35882
0.32353
0.4451
0.55098
0.68039
0.78627
0.87647
0.92157
0.94118
0.94706
0.94706
0.94706
0.94706
0.94118
0.94706
0.93725
0.93725
0.93725
0.93725
0.93137
0.93137
0.93137
0.92549
0.93137
0.93137
0.93137
0.93137
0.93725
0.93137
0.93725
0.93725
0.94118
0.94706
0.95098
0.95098
0.95686
0.94706
0.95686
0.94706
0.94118
0.94118
0.93725
0.93137
0.93137
0.92157
0.91569
0.91176
0.90588
0.90588
0.90196
0.90196
0.89608
0.90196
0.89608
0.89608
0.89608
0.8902
0.88627
0.88039
0.87059
0.87059
0.86078
0.86078
0.85098
0.85098
0.84118
0.84118
0.83529
0.83529
0.83529
0.83529
0.84118
0.84118
0.8451
0.85098
0.85686
0.85686
0.86078
0.86078
0.86667
0.86667
0.87059
0.87059
0.87059
0.87059
0.87647
0.87059
0.87647
0.87647
0.88039
0.88039
0.88627
0.89608
0.91176
0.91176
0.92157
0.92549
0.92549
0.91569
0.89608
0.88039
0.87059
0.86078
0.86078
0.86078
0.83529
0.73137
0.72157
0.83137
0.8
0.7451
0.69608
0.67059
0.66078
0.64118
0.51569
0.44902
0.3549
0.32941
0.47059
0.58039
0.7098
0.8
0.88039
0.92549
0.94706
0.94706
0.94706
0.94118
0.94118
0.94118
0.93725
0.93137
0.93725
0.93137
0.93137
0.93137
0.93137
0.92549
0.93137
0.93137
0.93137
0.93137
0.93137
0.93137
0.93725
0.94118
0.94118
0.94118
0.94706
0.95098
0.94706
0.95686
0.95098
0.95686
0.95098
0.94118
0.93725
0.93137
0.93137
0.93137
0.91569
0.91176
0.90588
0.90588
0.90196
0.90196
0.8902
0.8902
0.88627
0.88627
0.88627
0.88627
0.88039
0.87647
0.87059
0.86667
0.86078
0.86078
0.85686
0.85098
0.8451
0.84118
0.83529
0.83529
0.83529
0.83529
0.83529
0.83529
0.84118
0.8451
0.85098
0.85098
0.86078
0.86078
0.86078
0.86078
0.87059
0.86667
0.86667
0.87059
0.87059
0.87059
0.87059
0.87059
0.87647
0.88039
0.88039
0.8902
0.90196
0.90588
0.90588
0.92157
0.92549
0.93137
0.90588
0.88627
0.87647
0.87059
0.86078
0.86078
0.86078
0.83529
0.6902
0.81569
0.83137
0.79608
0.73137
0.6902
0.66471
0.66078
0.61961
0.48431
0.42941
0.3451
0.33922
0.49412
0.6098
0.73529
0.83137
0.89608
0.93137
0.94706
0.95098
0.94706
0.94706
0.94118
0.94706
0.93725
0.93725
0.93137
0.93137
0.93137
0.93137
0.93137
0.92549
0.93137
0.92549
0.93137
0.93137
0.93137
0.93137
0.93725
0.93725
0.93725
0.94118
0.95098
0.94706
0.95686
0.95686
0.95686
0.95098
0.94118
0.93725
0.93725
0.93137
0.93137
0.92549
0.91569
0.91176
0.91176
0.90588
0.90196
0.90588
0.89608
0.89608
0.8902
0.8902
0.88627
0.88627
0.88627
0.88627
0.87647
0.87059
0.86667
0.86078
0.85686
0.85098
0.8451
0.8451
0.83529
0.83529
0.83529
0.83529
0.84118
0.84118
0.8451
0.8451
0.85098
0.85686
0.86078
0.86078
0.86667
0.86667
0.87059
0.87059
0.87059
0.87059
0.87647
0.87647
0.88039
0.88039
0.88039
0.87647
0.88039
0.8902
0.90588
0.91176
0.92157
0.93137
0.93725
0.94118
0.90588
0.88627
0.87059
0.86667
0.86078
0.86078
0.85686
0.8451
0.73137
0.84118
0.8451
0.79608
0.72549
0.6902
0.67647
0.68627
0.62549
0.50588
0.40392
0.29412
0.34902
0.4451
0.56471
0.7098
0.82157
0.89608
0.93137
0.94706
0.95686
0.95098
0.95098
0.94706
0.94706
0.94118
0.94118
0.93137
0.93725
0.93137
0.93725
0.93137
0.93137
0.93137
0.93137
0.93137
0.93137
0.93137
0.93725
0.94118
0.93725
0.94706
0.94706
0.95686
0.95686
0.95686
0.95686
0.95686
0.95686
0.95098
0.94706
0.95098
0.93725
0.94118
0.93137
0.93137
0.92157
0.92549
0.91176
0.91176
0.90588
0.90588
0.90588
0.90196
0.89608
0.8902
0.88627
0.88627
0.88039
0.87647
0.87647
0.86667
0.86078
0.85686
0.86078
0.8451
0.85098
0.84118
0.8451
0.84118
0.85098
0.85098
0.85098
0.85098
0.86078
0.86078
0.86078
0.86078
0.86667
0.87059
0.87647
0.88039
0.87647
0.88627
0.88039
0.88627
0.88039
0.88627
0.88627
0.88627
0.88627
0.90196
0.91176
0.91569
0.91176
0.93137
0.93137
0.93137
0.91176
0.89608
0.88039
0.87647
0.86667
0.86667
0.86078
0.83529
0.72549
0.82549
0.83529
0.7902
0.73137
0.68039
0.66471
0.66078
0.61961
0.49412
0.42549
0.32941
0.32353
0.4902
0.6
0.72549
0.82549
0.89608
0.93137
0.94706
0.95686
0.95098
0.95098
0.94706
0.94706
0.94706
0.94118
0.94118
0.93725
0.94118
0.93137
0.93725
0.93137
0.93137
0.93137
0.93725
0.93137
0.94118
0.93725
0.94118
0.94706
0.94706
0.95098
0.95686
0.95686
0.95686
0.95686
0.96078
0.95686
0.95098
0.95098
0.94118
0.94706
0.93725
0.93137
0.92549
0.92157
0.91176
0.91569
0.90588
0.90588
0.90196
0.90196
0.89608
0.89608
0.88627
0.88627
0.88627
0.88627
0.88039
0.87647
0.86667
0.86667
0.86078
0.85686
0.85098
0.8451
0.85098
0.8451
0.8451
0.8451
0.85098
0.8451
0.85686
0.85686
0.86078
0.86078
0.86078
0.86667
0.87059
0.87059
0.87647
0.87647
0.88039
0.88039
0.88627
0.88627
0.88627
0.88627
0.88627
0.88627
0.8902
0.90588
0.91569
0.91176
0.91569
0.93137
0.93137
0.92549
0.90588
0.89608
0.88039
0.87059
0.86667
0.86667
0.85098
0.8
0.69608
0.8451
0.82549
0.77647
0.72157
0.6902
0.67059
0.66078
0.56471
0.47451
0.3902
0.32941
0.43922
0.5451
0.66471
0.77647
0.86667
0.91569
0.94706
0.95686
0.95686
0.95686
0.95686
0.95098
0.95686
0.94706
0.95098
0.94706
0.94118
0.94706
0.94118
0.94118
0.94118
0.94118
0.94118
0.94706
0.93725
0.94706
0.94706
0.94706
0.94706
0.95098
0.95098
0.95686
0.95686
0.95686
0.95686
0.95686
0.95686
0.95686
0.94118
0.94118
0.93137
0.93137
0.93137
0.92549
0.92157
0.91176
0.91176
0.90588
0.90588
0.90588
0.90196
0.89608
0.90196
0.8902
0.8902
0.88627
0.88627
0.87647
0.88039
0.87647
0.87059
0.86078
0.86078
0.85098
0.85098
0.8451
0.84118
0.8451
0.84118
0.8451
0.8451
0.85098
0.85686
0.86078
0.86078
0.86667
0.86667
0.87059
0.87059
0.87647
0.87059
0.88039
0.87647
0.87647
0.87647
0.88627
0.88627
0.88627
0.8902
0.89608
0.90588
0.91176
0.91569
0.93137
0.93725
0.93725
0.92549
0.90196
0.88039
0.87059
0.86078
0.86078
0.86078
0.84118
0.73529
0.7098
0.84118
0.81569
0.76667
0.71569
0.68627
0.68627
0.6902
0.56471
0.47451
0.35882
0.3098
0.4098
0.51961
0.65098
0.77647
0.87647
0.92549
0.94706
0.95686
0.95686
0.95686
0.95686
0.95686
0.95686
0.95098
0.95098
0.94706
0.94706
0.94118
0.94706
0.93725
0.94118
0.93137
0.93137
0.93137
0.93137
0.93137
0.94118
0.94118
0.94706
0.95098
0.95098
0.95686
0.95686
0.96667
0.95686
0.96078
0.95686
0.96078
0.95686
0.95098
0.94706
0.94118
0.93725
0.93725
0.92549
0.92157
0.91569
0.91176
0.90588
0.90588
0.90588
0.90588
0.90196
0.89608
0.8902
0.8902
0.88627
0.88627
0.88039
0.87647
0.87059
0.86078
0.86078
0.85686
0.85098
0.8451
0.8451
0.8451
0.85098
0.8451
0.85098
0.85098
0.86078
0.86078
0.86078
0.86078
0.86667
0.86667
0.87059
0.87647
0.87647
0.88039
0.87647
0.88627
0.88627
0.88039
0.87647
0.88627
0.88627
0.8902
0.90588
0.91569
0.91569
0.93137
0.93725
0.94118
0.92549
0.90196
0.88039
0.87059
0.86078
0.86078
0.86078
0.84118
0.75098
0.73529
0.83529
0.81176
0.7451
0.68627
0.66078
0.66471
0.67059
0.53529
0.4549
0.3451
0.31373
0.42549
0.53922
0.66471
0.78039
0.87059
0.92157
0.93725
0.94706
0.95098
0.95098
0.94706
0.94706
0.94118
0.94118
0.93725
0.93137
0.93725
0.93137
0.93137
0.92549
0.92549
0.92549
0.93137
0.93137
0.93137
0.93137
0.93725
0.93137
0.94118
0.94118
0.94706
0.95098
0.95686
0.95686
0.95686
0.95098
0.95098
0.94706
0.94118
0.94706
0.93725
0.93137
0.93137
0.92549
0.91569
0.91569
0.90588
0.90588
0.90196
0.90196
0.89608
0.90196
0.89608
0.89608
0.88627
0.88627
0.88039
0.88039
0.87647
0.87059
0.86078
0.86078
0.85686
0.8451
0.84118
0.84118
0.84118
0.84118
0.8451
0.8451
0.85098
0.8451
0.85686
0.85686
0.86078
0.86078
0.86667
0.86667
0.87059
0.87059
0.87059
0.87059
0.87647
0.87059
0.87647
0.87647
0.88039
0.88627
0.8902
0.90588
0.91176
0.91176
0.90588
0.93137
0.93137
0.92549
0.90588
0.89608
0.88039
0.87647
0.87059
0.87059
0.86667
0.85098
0.75098
0.8451
0.83137
0.78627
0.72549
0.68627
0.66471
0.66078
0.58431
0.48039
0.4
0.32941
0.4098
0.51961
0.63529
0.75098
0.85098
0.90588
0.93725
0.95098
0.95098
0.95098
0.94706
0.94706
0.94706
0.94118
0.94118
0.93137
0.93137
0.93137
0.93137
0.93137
0.93137
0.93725
0.93137
0.93137
0.93137
0.93137
0.93137
0.94118
0.93725
0.94706
0.94706
0.95098
0.95098
0.95686
0.95686
0.95686
0.95686
0.95098
0.94118
0.93725
0.93137
0.93137
0.92549
0.92157
0.91569
0.91176
0.90588
0.90588
0.90196
0.90588
0.89608
0.8902
0.88627
0.88627
0.88627
0.88039
0.88039
0.87059
0.86667
0.86667
0.86078
0.85686
0.8451
0.84118
0.84118
0.83529
0.83529
0.83529
0.83529
0.83529
0.83529
0.84118
0.8451
0.85098
0.85098
0.85686
0.86078
0.86078
0.86078
0.86078
0.86078
0.86667
0.87059
0.87059
0.87059
0.87059
0.87059
0.87647
0.87647
0.88627
0.8902
0.90588
0.90588
0.91569
0.92549
0.93137
0.91569
0.89608
0.87647
0.86667
0.86078
0.85686
0.85686
0.83137
0.72157
0.69608
0.83137
0.8
0.7451
0.7
0.66471
0.6549
0.64118
0.51569
0.44902
0.3549
0.32353
0.4451
0.56078
0.68039
0.7902
0.87647
0.92549
0.93725
0.94706
0.95098
0.94118
0.94118
0.93725
0.93725
0.93137
0.93137
0.93137
0.93137
0.93137
0.93137
0.93137
0.93137
0.93137
0.93137
0.93137
0.93137
0.93137
0.93725
0.94118
0.93725
0.94118
0.94118
0.94706
0.94118
0.94706
0.94118
0.94706
0.94118
0.94706
0.93137
0.93137
0.93137
0.92549
0.92157
0.91569
0.91176
0.90588
0.90196
0.90196
0.90196
0.89608
0.8902
0.8902
0.88627
0.88627
0.88627
0.88627
0.87059
0.87059
0.86078
0.86078
0.85686
0.85098
0.84118
0.84118
0.84118
0.84118
0.83529
0.83529
0.83529
0.83529
0.84118
0.84118
0.85098
0.85686
0.85686
0.85686
0.86078
0.86078
0.86667
0.86667
0.87059
0.87059
0.87059
0.87647
0.87059
0.87647
0.88039
0.88039
0.88039
0.88627
0.90196
0.91569
0.91569
0.93137
0.93137
0.93725
0.91569
0.89608
0.88039
0.87059
0.86078
0.85686
0.86078
0.84118
0.82157
0.7451
0.8451
0.82549
0.76078
0.7098
0.67647
0.67059
0.69608
0.58039
0.49412
0.35882
0.2902
0.37059
0.48039
0.60588
0.7451
0.85098
0.91569
0.93725
0.95686
0.95686
0.95686
0.95098
0.95098
0.94706
0.94706
0.94118
0.94118
0.93725
0.93725
0.93725
0.93137
0.93725
0.93137
0.93725
0.93137
0.93725
0.93137
0.94118
0.93725
0.94706
0.94706
0.95098
0.95098
0.96078
0.96078
0.96667
0.96078
0.96078
0.95686
0.95686
0.94706
0.94706
0.94118
0.93725
0.94118
0.92549
0.91569
0.91176
0.91176
0.90588
0.90588
0.90196
0.90196
0.90196
0.90196
0.8902
0.8902
0.88627
0.88039
0.87059
0.87059
0.86078
0.86078
0.85098
0.85098
0.85098
0.85098
0.8451
0.8451
0.85098
0.85098
0.86078
0.86078
0.86078
0.86078
0.87647
0.87059
0.87647
0.87059
0.87647
0.87647
0.88039
0.87647
0.88627
0.88627
0.88627
0.88627
0.88627
0.88627
0.8902
0.90588
0.91569
0.92549
0.91569
0.93137
0.93725
0.93137
0.90588
0.8902
0.88039
0.87059
0.86667
0.87059
0.85686
0.81569
0.7
0.85098
0.83137
0.77647
0.71569
0.68039
0.67059
0.67647
0.57451
0.48431
0.39412
0.32941
0.41961
0.52549
0.6451
0.76667
0.86667
0.91569
0.94706
0.95686
0.95686
0.95686
0.95098
0.94706
0.95686
0.94706
0.95098
0.94706
0.94118
0.93725
0.94118
0.93137
0.93725
0.93137
0.93725
0.93137
0.93725
0.93725
0.94118
0.94118
0.94706
0.95098
0.94706
0.95686
0.95686
0.95686
0.95686
0.96078
0.95686
0.95686
0.95098
0.94118
0.93725
0.93725
0.93137
0.92549
0.92157
0.92157
0.91176
0.91176
0.90588
0.90588
0.90588
0.90196
0.8902
0.8902
0.88627
0.88627
0.88039
0.87647
0.87059
0.86667
0.86078
0.85686
0.85686
0.85098
0.8451
0.84118
0.8451
0.84118
0.8451
0.8451
0.85686
0.85686
0.86078
0.86078
0.86667
0.87059
0.87059
0.87059
0.87647
0.88039
0.88039
0.88039
0.88039
0.88039
0.88039
0.88039
0.88039
0.88627
0.8902
0.90196
0.90588
0.91176
0.91176
0.93137
0.93137
0.93137
0.91569
0.90196
0.88627
0.88039
0.87059
0.87059
0.86078
0.84118
0.7
0.82549
0.84118
0.80588
0.74118
0.69608
0.67059
0.67059
0.63529
0.5
0.43529
0.33922
0.33529
0.48431
0.6
0.72549
0.82157
0.89608
0.93725
0.95098
0.95098
0.95098
0.95098
0.94706
0.95098
0.94706
0.95098
0.94706
0.93725
0.93725
0.93137
0.94118
0.93725
0.93725
0.93725
0.93725
0.93137
0.94118
0.93725
0.94706
0.94118
0.94118
0.94706
0.95098
0.95098
0.95686
0.95686
0.95686
0.95098
0.95098
0.94706
0.93725
0.94118
0.93137
0.92549
0.92157
0.91569
0.91176
0.90588
0.90196
0.90196
0.89608
0.90196
0.89608
0.89608
0.89608
0.8902
0.88627
0.88627
0.88039
0.87647
0.87059
0.86667
0.86078
0.85686
0.8451
0.8451
0.84118
0.83529
0.84118
0.84118
0.84118
0.8451
0.85098
0.85098
0.85686
0.85686
0.86078
0.86078
0.86078
0.86078
0.87647
0.87647
0.87647
0.87647
0.88039
0.87647
0.88039
0.88039
0.88039
0.88627
0.88627
0.89608
0.90588
0.91176
0.90588
0.92549
0.93137
0.92549
0.90588
0.8902
0.87647
0.86667
0.86078
0.86078
0.85686
0.81176
0.68627
0.83529
0.82157
0.77059
0.71569
0.68039
0.67059
0.67059
0.59608
0.4902
0.3902
0.30392
0.3902
0.4902
0.6098
0.73529
0.84118
0.90196
0.93137
0.94118
0.94706
0.94706
0.94706
0.94118
0.94118
0.93725
0.94118
0.93725
0.93137
0.93137
0.93725
0.93137
0.92549
0.93137
0.93137
0.93137
0.93137
0.93137
0.93137
0.93725
0.93725
0.94118
0.94706
0.95686
0.95098
0.95686
0.95686
0.95686
0.95686
0.95686
0.95098
0.94706
0.94118
0.93725
0.93137
0.93137
0.92157
0.92157
0.91569
0.90588
0.91176
0.90588
0.89608
0.89608
0.89608
0.88627
0.88627
0.88627
0.88627
0.88039
0.87059
0.86078
0.86078
0.85686
0.85686
0.8451
0.8451
0.83529
0.83529
0.83529
0.83529
0.83529
0.8451
0.85098
0.8451
0.85098
0.85686
0.86078
0.86078
0.86667
0.86667
0.86667
0.87059
0.87647
0.87647
0.87647
0.87647
0.88039
0.87647
0.88039
0.88627
0.8902
0.90196
0.91569
0.91569
0.92549
0.93725
0.93725
0.93137
0.90588
0.88627
0.87647
0.86078
0.86078
0.86078
0.84118
0.81569
0.73529
0.84118
0.81569
0.7549
0.7
0.67059
0.67059
0.67647
0.56078
0.47059
0.36471
0.3098
0.40392
0.51569
0.64118
0.76667
0.86667
0.92157
0.94118
0.95098
0.95098
0.94706
0.95686
0.94706
0.95098
0.95098
0.94118
0.93725
0.94706
0.93725
0.94118
0.93725
0.94118
0.93725
0.93725
0.93725
0.93725
0.93137
0.93725
0.93725
0.94118
0.95098
0.94706
0.95686
0.95686
0.95686
0.95686
0.95686
0.95686
0.95098
0.94706
0.94118
0.93137
0.93137
0.92549
0.92549
0.91569
0.91176
0.90588
0.90588
0.90196
0.90196
0.89608
0.90196
0.8902
0.8902
0.88627
0.88627
0.87647
0.87059
0.86078
0.86078
0.86078
0.85686
0.85098
0.8451
0.8451
0.84118
0.84118
0.83529
0.83529
0.83529
0.8451
0.85098
0.85686
0.85686
0.86078
0.86078
0.86078
0.86078
0.86667
0.87059
0.87647
0.88039
0.88039
0.87647
0.88039
0.87647
0.88039
0.88627
0.88627
0.90588
0.91176
0.91569
0.91176
0.93137
0.93137
0.92549
0.90588
0.8902
0.87647
0.87059
0.86667
0.86667
0.86078
0.84118
0.73529
0.83529
0.82549
0.78039
0.72549
0.68627
0.67059
0.66471
0.59608
0.48431
0.4
0.31961
0.40392
0.51569
0.62941
0.75098
0.85098
0.91176
0.94118
0.95098
0.95686
0.95686
0.95686
0.95098
0.95686
0.95686
0.95098
0.94706
0.94706
0.94118
0.94118
0.94118
0.93725
0.94118
0.93725
0.94118
0.94118
0.94118
0.94706
0.95098
0.95098
0.95686
0.95098
0.95686
0.95686
0.96078
0.95686
0.95686
0.95686
0.95686
0.95098
0.95098
0.94118
0.93725
0.93137
0.92549
0.92157
0.92157
0.91176
0.90588
0.90588
0.90588
0.90588
0.90196
0.90588
0.89608
0.89608
0.8902
0.88627
0.88627
0.88627
0.87647
0.87059
0.86078
0.86078
0.85686
0.85686
0.85098
0.8451
0.8451
0.8451
0.8451
0.85098
0.85098
0.85686
0.85686
0.85686
0.86078
0.86078
0.87059
0.86667
0.87647
0.87059
0.88039
0.87647
0.88627
0.88627
0.88627
0.88627
0.88627
0.88627
0.8902
0.90588
0.91569
0.91569
0.92549
0.93137
0.93137
0.91569
0.90196
0.88627
0.87059
0.87059
0.86667
0.86667
0.8451
0.73529
0.7098
0.84118
0.81176
0.76078
0.70588
0.67647
0.67059
0.6549
0.53529
0.46471
0.37059
0.33922
0.46078
0.57059
0.6902
0.8
0.88627
0.93137
0.95098
0.95686
0.96078
0.96078
0.96078
0.95686
0.95686
0.95686
0.95098
0.94118
0.94706
0.94118
0.93725
0.93137
0.93725
0.93137
0.93137
0.93137
0.93137
0.93725
0.93725
0.94118
0.94706
0.94706
0.94706
0.95686
0.95686
0.95686
0.95098
0.95686
0.94706
0.94118
0.93725
0.93725
0.93137
0.93137
0.92157
0.91569
0.91176
0.91176
0.90588
0.90588
0.89608
0.89608
0.8902
0.8902
0.88627
0.88627
0.88039
0.88039
0.87647
0.87059
0.86078
0.85686
0.85686
0.85098
0.8451
0.83529
0.83529
0.83529
0.83137
0.82549
0.83529
0.83529
0.83529
0.83529
0.84118
0.8451
0.85098
0.85098
0.85686
0.85686
0.86078
0.85686
0.86078
0.86078
0.86078
0.86078
0.86078
0.86667
0.86667
0.87059
0.87059
0.88627
0.89608
0.90588
0.90588
0.92157
0.92549
0.92549
0.90588
0.88627
0.87059
0.86078
0.85098
0.85686
0.85098
0.83529
0.69608
0.81176
0.83529
0.8
0.73529
0.68627
0.67059
0.68627
0.66078
0.53529
0.4451
0.31373
0.27843
0.4
0.51569
0.65098
0.77647
0.87059
0.91569
0.93137
0.93725
0.94118
0.93725
0.93725
0.93725
0.93725
0.93137
0.93725
0.93137
0.93137
0.93137
0.93137
0.92549
0.92549
0.92549
0.93137
0.92549
0.93137
0.93137
0.93725
0.94118
0.94706
0.94706
0.95686
0.95686
0.96078
0.96667
0.96078
0.95686
0.95686
0.95686
0.95098
0.95098
0.94706
0.93725
0.93725
0.93137
0.92549
0.92549
0.91569
0.91176
0.90588
0.90588
0.90196
0.90196
0.89608
0.8902
0.88627
0.88627
0.87059
0.87059
0.86078
0.86078
0.85686
0.85686
0.8451
0.8451
0.84118
0.84118
0.84118
0.84118
0.8451
0.84118
0.8451
0.8451
0.85686
0.85686
0.86078
0.86078
0.86078
0.86078
0.86667
0.86667
0.87059
0.86667
0.87059
0.87059
0.87059
0.87647
0.87059
0.87647
0.88627
0.8902
0.90588
0.91176
0.91569
0.93137
0.93137
0.93137
0.90588
0.8902
0.87647
0.86667
0.86078
0.86078
0.85686
0.84118
0.7098
0.82549
0.84118
0.79608
0.73529
0.6902
0.66471
0.67059
0.63529
0.51569
0.43529
0.33529
0.31961
0.46078
0.57451
0.70588
0.81569
0.89608
0.93137
0.94706
0.95686
0.95098
0.95098
0.94706
0.94706
0.94118
0.94118
0.93725
0.93725
0.93137
0.93137
0.93725
0.93137
0.93137
0.93137
0.93137
0.93137
0.93725
0.93725
0.94118
0.93725
0.94118
0.94118
0.94706
0.94706
0.95686
0.95686
0.95686
0.95686
0.95686
0.95098
0.94706
0.93725
0.93137
0.92549
0.92549
0.91569
0.91176
0.90588
0.90588
0.90588
0.90196
0.8902
0.8902
0.8902
0.88627
0.8902
0.88627
0.88627
0.87647
0.87647
0.86667
0.86078
0.85686
0.85098
0.8451
0.8451
0.83529
0.83529
0.83529
0.83529
0.83529
0.84118
0.8451
0.85098
0.85098
0.85686
0.85686
0.86078
0.86078
0.86667
0.87059
0.87059
0.87647
0.87059
0.87647
0.87647
0.88039
0.87647
0.88039
0.88039
0.88627
0.89608
0.90588
0.91176
0.92157
0.93137
0.93137
0.93137
0.91176
0.8902
0.87647
0.86667
0.86078
0.86078
0.85686
0.83529
0.71569
0.83137
0.83529
0.78627
0.72549
0.68627
0.66078
0.66471
0.59608
0.48431
0.40392
0.33529
0.39412
0.5098
0.61961
0.7451
0.8451
0.90588
0.93725
0.95098
0.95686
0.95098
0.95098
0.94706
0.95098
0.94706
0.94118
0.94118
0.93725
0.93725
0.93725
0.93137
0.93725
0.93137
0.93725
0.93725
0.93137
0.93725
0.94118
0.94118
0.94706
0.95686
0.95098
0.95686
0.95098
0.95686
0.95686
0.95686
0.95686
0.95098
0.94706
0.94118
0.93725
0.93725
0.93137
0.93137
0.92157
0.92157
0.91176
0.90588
0.90588
0.90588
0.90196
0.90196
0.88627
0.88627
0.88627
0.88627
0.88039
0.88039
0.87059
0.86667
0.86078
0.85686
0.85098
0.8451
0.8451
0.83529
0.84118
0.83529
0.84118
0.84118
0.8451
0.85098
0.85686
0.85686
0.86078
0.85686
0.86078
0.86078
0.86667
0.86667
0.87647
0.87647
0.88039
0.87647
0.87059
0.88039
0.88039
0.88627
0.88627
0.88627
0.90196
0.91176
0.90588
0.91569
0.92549
0.93137
0.92549
0.90588
0.88627
0.87647
0.86667
0.86667
0.86078
0.85098
0.8
0.6902
0.83529
0.81569
0.76667
0.71569
0.68039
0.66471
0.67059
0.56471
0.47451
0.38039
0.31961
0.4098
0.51961
0.63529
0.7549
0.85098
0.91176
0.93137
0.94706
0.95098
0.95098
0.94706
0.95098
0.94118
0.94706
0.93725
0.93137
0.93725
0.93137
0.93137
0.93137
0.93137
0.93137
0.93137
0.93137
0.93137
0.93137
0.93725
0.94118
0.93725
0.94118
0.94118
0.94706
0.95686
0.95686
0.95686
0.95686
0.95686
0.95098
0.94706
0.94118
0.94118
0.93725
0.93725
0.92549
0.92157
0.91569
0.91569
0.91176
0.90196
0.90196
0.90196
0.90196
0.89608
0.90196
0.88627
0.88627
0.88039
0.87647
0.87059
0.87059
0.86078
0.86078
0.85686
0.85098
0.84118
0.84118
0.84118
0.84118
0.84118
0.84118
0.8451
0.8451
0.8451
0.85098
0.85686
0.86078
0.86667
0.86078
0.86667
0.86667
0.87059
0.87059
0.87059
0.87059
0.87647
0.87059
0.87647
0.87647
0.88039
0.88627
0.89608
0.90588
0.91569
0.92157
0.93725
0.94706
0.93725
0.92157
0.89608
0.88039
0.86667
0.86667
0.86078
0.86078
0.84118
0.6902
0.82157
0.8451
0.81569
0.7451
0.6902
0.67059
0.68627
0.66078
0.52941
0.44902
0.32941
0.29412
0.42549
0.53529
0.67059
0.78627
0.87647
0.92157
0.94706
0.94706
0.95098
0.94706
0.94706
0.94118
0.94706
0.93725
0.94118
0.93725
0.93137
0.93137
0.93137
0.93137
0.93137
0.93137
0.93137
0.93725
0.93137
0.93725
0.94118
0.94706
0.94118
0.95686
0.95686
0.96078
0.95686
0.96078
0.95686
0.96078
0.95686
0.95686
0.95686
0.94706
0.94118
0.94118
0.93137
0.92549
0.92157
0.92157
0.91176
0.91176
0.90588
0.90588
0.90588
0.90196
0.8902
0.88627
0.8902
0.88627
0.88039
0.87647
0.87647
0.86667
0.86078
0.85686
0.85686
0.8451
0.8451
0.84118
0.84118
0.83529
0.84118
0.84118
0.85098
0.85098
0.86078
0.86078
0.86078
0.86078
0.86667
0.87059
0.87059
0.87647
0.87647
0.87647
0.87647
0.88039
0.87647
0.88039
0.88039
0.88627
0.88627
0.90196
0.90588
0.92157
0.91569
0.93137
0.93137
0.93137
0.90588
0.8902
0.87647
0.86667
0.86078
0.86078
0.86078
0.86078
0.83529
0.7098
0.83137
0.83529
0.79608
0.73529
0.6902
0.66471
0.67059
0.62549
0.5
0.42941
0.33922
0.32941
0.48039
0.59608
0.72549
0.82157
0.89608
0.93137
0.94706
0.95098
0.95686
0.95098
0.95098
0.94706
0.94118
0.94706
0.93725
0.93725
0.93725
0.93137
0.93137
0.93137
0.93137
0.93137
0.93725
0.93137
0.93725
0.93725
0.93725
0.94118
0.94118
0.94706
0.95098
0.95098
0.95686
0.95686
0.95686
0.95686
0.95098
0.94706
0.94118
0.93137
0.93137
0.92549
0.92157
0.91176
0.91569
0.90588
0.90588
0.89608
0.89608
0.8902
0.89608
0.8902
0.8902
0.8902
0.88627
0.87647
0.87647
0.87059
0.86667
0.86078
0.85686
0.85098
0.8451
0.8451
0.83529
0.84118
0.83529
0.8451
0.84118
0.8451
0.85098
0.85686
0.85686
0.86078
0.86078
0.87059
0.87059
0.88039
0.87647
0.88039
0.87647
0.88039
0.88039
0.88039
0.88627
0.88627
0.88627
0.88627
0.90588
0.91176
0.91569
0.92157
0.93137
0.93137
0.93725
0.90588
0.89608
0.88039
0.87059
0.86078
0.86667
0.86078
0.86078
0.83529
0.6902
0.81569
0.83529
0.79608
0.74118
0.69608
0.67059
0.66471
0.62941
0.5
0.43922
0.3451
0.32353
0.47059
0.5902
0.71569
0.81569
0.89608
0.93137
0.95098
0.95686
0.95098
0.95686
0.95098
0.94706
0.94118
0.94118
0.94118
0.93725
0.93725
0.93137
0.93137
0.93725
0.93137
0.93725
0.93725
0.94118
0.93725
0.94706
0.94118
0.94706
0.94706
0.95098
0.95098
0.95686
0.95686
0.95686
0.95686
0.95686
0.95098
0.94706
0.95098
0.94118
0.93137
0.93137
0.92549
0.92157
0.91569
0.91176
0.90588
0.90196
0.90196
0.89608
0.8902
0.8902
0.8902
0.88627
0.88039
0.87059
0.87059
0.86078
0.86078
0.86078
0.85098
0.8451
0.8451
0.83529
0.83529
0.83529
0.83529
0.83529
0.83137
0.83529
0.84118
0.8451
0.84118
0.85098
0.85098
0.85686
0.85686
0.86078
0.86078
0.86667
0.86667
0.87059
0.86667
0.87059
0.86667
0.87059
0.87647
0.88627
0.89608
0.91176
0.91569
0.91176
0.93137
0.93725
0.92549
0.90588
0.88627
0.87647
0.86078
0.86078
0.86078
0.85686
0.8451
0.72549
0.83529
0.84118
0.78627
0.72549
0.6902
0.67647
0.6902
0.62941
0.5098
0.4098
0.3
0.34902
0.4451
0.57059
0.7098
0.82157
0.89608
0.93137
0.94706
0.95098
0.94706
0.94118
0.94118
0.94706
0.93725
0.94118
0.93137
0.93137
0.93137
0.93137
0.92549
0.92549
0.92549
0.93137
0.92549
0.93137
0.93137
0.93137
0.93137
0.93725
0.94118
0.94118
0.95098
0.95098
0.95098
0.95686
0.95686
0.95686
0.95686
0.95098
0.95098
0.93725
0.93725
0.93137
0.93137
0.92157
0.91569
0.91176
0.90588
0.90588
0.90196
0.90588
0.89608
0.8902
0.88627
0.88627
0.87647
0.88039
0.87647
0.87059
0.86078
0.86078
0.85686
0.85098
0.8451
0.8451
0.83529
0.84118
0.84118
0.8451
0.84118
0.8451
0.85098
0.86078
0.86078
0.86078
0.86078
0.86667
0.87059
0.87059
0.87647
0.87647
0.88039
0.87647
0.88039
0.87647
0.88627
0.88627
0.88627
0.88627
0.88627
0.89608
0.91176
0.91569
0.92549
0.93137
0.94118
0.93137
0.91176
0.8902
0.88039
0.86667
0.86078
0.86078
0.85686
0.84118
0.71569
0.83529
0.8451
0.78627
0.72549
0.68039
0.66471
0.67059
0.61569
0.49412
0.41569
0.32353
0.37451
0.48039
0.59608
0.72549
0.82157
0.90196
0.93137
0.95098
0.94706
0.95098
0.95686
0.94706
0.94118
0.94118
0.94118
0.93725
0.93725
0.93137
0.93725
0.93137
0.94118
0.93137
0.93725
0.93725
0.93725
0.93725
0.94706
0.94118
0.94706
0.94118
0.94706
0.95098
0.95686
0.95686
0.96078
0.95686
0.96078
0.95686
0.95686
0.94706
0.94118
0.94706
0.93137
0.93725
0.92549
0.92157
0.91176
0.91176
0.91176
0.90588
0.90196
0.90588
0.89608
0.90196
0.8902
0.8902
0.88627
0.88627
0.88039
0.87647
0.86667
0.86667
0.86078
0.85686
0.85098
0.8451
0.85098
0.84118
0.85098
0.85098
0.85686
0.85686
0.86078
0.86078
0.86078
0.86078
0.87059
0.87059
0.87647
0.87647
0.88039
0.88627
0.88627
0.88627
0.88627
0.88627
0.88627
0.88627
0.88627
0.89608
0.90196
0.91176
0.91569
0.92549
0.93137
0.94118
0.93137
0.91569
0.89608
0.88627
0.87059
0.87059
0.86667
0.86667
0.86667
0.84118
0.7
0.83137
0.83529
0.8
0.74118
0.69608
0.67059
0.66471
0.62941
0.5
0.43529
0.33922
0.32941
0.48431
0.60588
0.72549
0.83137
0.90588
0.94118
0.95686
0.96078
0.95686
0.95686
0.95686
0.95686
0.95686
0.95686
0.95098
0.95098
0.94706
0.94706
0.94118
0.94118
0.94118
0.93725
0.94118
0.94118
0.94118
0.94118
0.94706
0.94118
0.95686
0.95098
0.95686
0.95686
0.95686
0.95686
0.95686
0.95686
0.95686
0.95686
0.95098
0.94118
0.94118
0.93137
0.92549
0.92549
0.92157
0.91176
0.90588
0.90588
0.90588
0.90196
0.89608
0.90196
0.8902
0.8902
0.88627
0.88627
0.88039
0.87647
0.87059
0.87059
0.86078
0.85686
0.85098
0.85686
0.8451
0.8451
0.84118
0.84118
0.8451
0.85098
0.85686
0.85686
0.86078
0.86078
0.86078
0.86667
0.87059
0.87059
0.88039
0.87647
0.88039
0.88039
0.88039
0.88039
0.88627
0.88627
0.88627
0.8902
0.90588
0.91176
0.91176
0.91569
0.93137
0.93137
0.92549
0.90588
0.8902
0.88039
0.87059
0.86078
0.86078
0.86667
0.85686
0.8451
0.72157
0.83529
0.82549
0.78627
0.73137
0.6902
0.67059
0.66471
0.59608
0.48039
0.4098
0.33529
0.40392
0.5098
0.62941
0.75098
0.85098
0.91569
0.94706
0.96078
0.95686
0.95686
0.95686
0.95686
0.95686
0.94706
0.94706
0.94118
0.94118
0.94118
0.93725
0.93137
0.93725
0.93137
0.93137
0.93137
0.93137
0.93137
0.93725
0.94118
0.93725
0.94706
0.94706
0.95686
0.95686
0.95686
0.95686
0.96078
0.95686
0.95686
0.95686
0.95098
0.94118
0.94118
0.93137
0.93137
0.92549
0.92157
0.91176
0.91176
0.90588
0.90588
0.90196
0.89608
0.89608
0.89608
0.88627
0.88627
0.88039
0.87647
0.87059
0.86667
0.86078
0.85686
0.85686
0.85098
0.85098
0.8451
0.8451
0.84118
0.8451
0.8451
0.85686
0.85686
0.86078
0.86078
0.86667
0.86667
0.87059
0.87647
0.87647
0.88039
0.87647
0.88039
0.88039
0.88039
0.88039
0.88627
0.88627
0.8902
0.89608
0.90588
0.91176
0.92157
0.93137
0.94706
0.94706
0.93725
0.91176
0.89608
0.88039
0.87059
0.86667
0.86078
0.86078
0.8451
0.73529
0.83529
0.8451
0.80588
0.74118
0.6902
0.67647
0.69608
0.6549
0.51961
0.42941
0.30392
0.2902
0.42549
0.5451
0.68627
0.80588
0.8902
0.93137
0.94706
0.95098
0.95098
0.95686
0.94706
0.95098
0.94706
0.94118
0.94118
0.93725
0.93137
0.93137
0.93137
0.93137
0.92549
0.92549
0.93137
0.92549
0.93137
0.93137
0.93725
0.94706
0.94706
0.94706
0.95686
0.95686
0.95686
0.95686
0.96078
0.95686
0.95686
0.95686
0.95098
0.94706
0.94118
0.93137
0.93137
0.93137
0.91569
0.91176
0.90588
0.90588
0.90196
0.90588
0.8902
0.89608
0.88627
0.88627
0.88627
0.88627
0.87059
0.87059
0.86667
0.86078
0.85686
0.85098
0.8451
0.84118
0.84118
0.83529
0.83529
0.84118
0.8451
0.84118
0.85098
0.8451
0.85686
0.85686
0.86078
0.86078
0.86078
0.86078
0.86667
0.86667
0.87059
0.87059
0.87059
0.87647
0.87059
0.87647
0.88039
0.88627
0.89608
0.90588
0.90588
0.91176
0.92549
0.93137
0.93137
0.91176
0.89608
0.88627
0.87059
0.86667
0.86078
0.86078
0.86078
0.8451
0.73529
0.71569
0.84118
0.81569
0.75098
0.70588
0.67059
0.67059
0.6549
0.53922
0.47059
0.37059
0.32941
0.43922
0.55098
0.67647
0.7902
0.88039
0.92549
0.95098
0.95686
0.95686
0.95686
0.95686
0.95686
0.95098
0.94706
0.94118
0.94706
0.94118
0.94118
0.93137
0.93137
0.93725
0.93137
0.93725
0.93725
0.93137
0.93725
0.94118
0.94706
0.94706
0.94706
0.95098
0.95098
0.95686
0.95686
0.95686
0.95686
0.95686
0.94706
0.94118
0.94118
0.93725
0.93137
0.93137
0.92157
0.92157
0.91176
0.90588
0.90588
0.90196
0.90196
0.89608
0.90196
0.8902
0.89608
0.8902
0.88627
0.88039
0.87647
0.87059
0.86667
0.86078
0.85686
0.85098
0.8451
0.84118
0.8451
0.84118
0.84118
0.84118
0.8451
0.85098
0.8451
0.85686
0.86078
0.86078
0.86667
0.87059
0.87059
0.87059
0.87059
0.87647
0.87647
0.88039
0.87647
0.88627
0.88627
0.8902
0.8902
0.90588
0.91176
0.91569
0.92157
0.93137
0.93725
0.93137
0.90588
0.88627
0.87059
0.86078
0.86078
0.86078
0.86078
0.85686
0.83529
0.71569
0.82549
0.83529
0.7902
0.73137
0.6902
0.66471
0.66471
0.61961
0.49412
0.42941
0.33922
0.33529
0.49412
0.6098
0.73529
0.83137
0.90588
0.94118
0.95686
0.95686
0.95686
0.95686
0.95686
0.95686
0.95686
0.95098
0.94706
0.94706
0.94118
0.94706
0.94118
0.94118
0.93725
0.94118
0.93137
0.94118
0.93725
0.94118
0.94706
0.94706
0.94706
0.95686
0.95686
0.95686
0.95686
0.95686
0.95686
0.95098
0.95686
0.94706
0.94118
0.94118
0.93137
0.93137
0.92549
0.92157
0.91176
0.90588
0.90588
0.90588
0.90588
0.90196
0.89608
0.8902
0.89608
0.88627
0.8902
0.88627
0.88627
0.88039
0.87647
0.86667
0.86078
0.86078
0.85098
0.85098
0.8451
0.8451
0.84118
0.84118
0.84118
0.8451
0.84118
0.8451
0.85098
0.86078
0.86078
0.86078
0.86667
0.87059
0.87059
0.87059
0.87059
0.87647
0.88039
0.88039
0.88627
0.88627
0.8902
0.90196
0.91176
0.92157
0.92549
0.93725
0.94706
0.94118
0.93137
0.90588
0.88627
0.87059
0.86667
0.86078
0.86078
0.86078
0.85686
0.82157
0.7
0.8451
0.83529
0.78039
0.72549
0.69608
0.68627
0.69608
0.6
0.49412
0.39412
0.30392
0.38431
0.48431
0.6098
0.74118
0.8451
0.91176
0.93725
0.95098
0.95098
0.95686
0.95098
0.95098
0.94706
0.94706
0.94706
0.94118
0.93725
0.93725
0.93137
0.93137
0.93725
0.93137
0.94118
0.93725
0.93725
0.93725
0.94118
0.94118
0.94706
0.95098
0.95686
0.95686
0.95686
0.96078
0.95686
0.96078
0.95686
0.95686
0.95686
0.95686
0.95098
0.94706
0.94118
0.93137
0.93137
0.92549
0.92549
0.92157
0.91569
0.92157
0.91176
0.90588
0.90196
0.90196
0.89608
0.89608
0.88627
0.88627
0.87647
0.87059
0.86667
0.86667
0.85686
0.85098
0.8451
0.8451
0.8451
0.8451
0.85098
0.8451
0.85098
0.85686
0.85686
0.86667
0.87059
0.87059
0.87647
0.88039
0.88627
0.88627
0.88627
0.88627
0.88627
0.88627
0.88627
0.88627
0.8902
0.89608
0.90588
0.91569
0.92549
0.93137
0.93725
0.94706
0.95098
0.93137
0.90588
0.88627
0.88039
0.87059
0.86078
0.86667
0.85098
0.81569
0.73529
0.8451
0.82157
0.7549
0.7
0.67647
0.67059
0.67647
0.56471
0.48039
0.37451
0.31961
0.41961
0.51961
0.65098
0.77647
0.87059
0.92549
0.95098
0.95686
0.96078
0.95098
0.95686
0.95098
0.95098
0.94706
0.94118
0.93725
0.93725
0.93137
0.93725
0.93137
0.93137
0.93137
0.93137
0.93725
0.93725
0.93137
0.93725
0.94118
0.93725
0.95098
0.95098
0.95686
0.95686
0.95686
0.95686
0.95686
0.95686
0.95686
0.94706
0.94706
0.94118
0.93725
0.93137
0.93137
0.92157
0.92157
0.91569
0.91176
0.90588
0.90588
0.90196
0.90196
0.90588
0.89608
0.88627
0.88627
0.88627
0.88039
0.87059
0.86667
0.86078
0.86078
0.85686
0.8451
0.8451
0.84118
0.8451
0.8451
0.85098
0.8451
0.85098
0.85686
0.86078
0.86078
0.86078
0.86078
0.86667
0.87059
0.87647
0.87647
0.87647
0.88039
0.88039
0.88627
0.88039
0.88627
0.88039
0.88627
0.88627
0.89608
0.90588
0.92157
0.91176
0.93137
0.93137
0.93137
0.91569
0.90196
0.88627
0.87647
0.87059
0.86667
0.86078
0.86078
0.83529
0.68627
0.82157
0.84118
0.80588
0.7451
0.7
0.67059
0.67059
0.63529
0.5098
0.4451
0.3549
0.32941
0.47451
0.58039
0.7098
0.81176
0.89608
0.93137
0.95098
0.95686
0.95686
0.95686
0.95686
0.95098
0.95098
0.94706
0.94118
0.94706
0.93725
0.94118
0.93725
0.93725
0.93725
0.93725
0.93725
0.94118
0.94118
0.94706
0.95098
0.95686
0.95686
0.95098
0.95686
0.95686
0.95686
0.95686
0.96078
0.95686
0.95686
0.94706
0.95098
0.94118
0.93725
0.93137
0.92549
0.92157
0.92157
0.91176
0.90588
0.90196
0.90588
0.90196
0.90588
0.89608
0.90196
0.8902
0.8902
0.88627
0.88627
0.87647
0.87647
0.86667
0.86078
0.86078
0.85686
0.85098
0.8451
0.8451
0.84118
0.8451
0.8451
0.85686
0.85686
0.86078
0.86078
0.86667
0.86078
0.86667
0.87059
0.88039
0.88039
0.88039
0.87647
0.88039
0.88039
0.88039
0.88627
0.88627
0.88627
0.8902
0.89608
0.90588
0.91569
0.91569
0.93137
0.93137
0.93725
0.91176
0.90196
0.88627
0.87647
0.86667
0.86667
0.86078
0.86078
0.83529
0.73137
0.7
0.83529
0.80588
0.7549
0.7
0.67059
0.66471
0.6451
0.52941
0.4549
0.37059
0.32941
0.44902
0.56078
0.68627
0.7902
0.87647
0.92549
0.95098
0.95686
0.95686
0.95098
0.95098
0.94706
0.95098
0.94118
0.94706
0.93725
0.93725
0.93725
0.93137
0.93137
0.93137
0.93137
0.93137
0.93137
0.93137
0.94118
0.93725
0.94706
0.94118
0.94706
0.95098
0.95098
0.94706
0.95098
0.94706
0.95098
0.94706
0.95098
0.94118
0.94118
0.93725
0.93725
0.92549
0.92157
0.91176
0.91176
0.90588
0.89608
0.8902
0.8902
0.88627
0.88627
0.88627
0.88627
0.88039
0.87647
0.87059
0.86078
0.86078
0.86078
0.85098
0.84118
0.84118
0.83529
0.83529
0.83529
0.83137
0.83137
0.83529
0.83529
0.83529
0.84118
0.84118
0.8451
0.8451
0.85686
0.85686
0.86078
0.86078
0.86078
0.86078
0.86667
0.86667
0.86667
0.87059
0.87059
0.86667
0.87647
0.88039
0.89608
0.90588
0.91176
0.92157
0.93137
0.93725
0.91569
0.8902
0.88039
0.86667
0.86078
0.85686
0.85686
0.8451
0.80588
0.71569
0.83529
0.83137
0.77059
0.7098
0.67647
0.67059
0.69608
0.6
0.49412
0.37451
0.28431
0.36471
0.46078
0.59608
0.72549
0.83529
0.90196
0.93137
0.94118
0.94118
0.94706
0.93725
0.94118
0.93725
0.93137
0.93137
0.93137
0.92549
0.93137
0.92549
0.93137
0.92157
0.93137
0.92549
0.93137
0.92549
0.93137
0.93725
0.93137
0.93725
0.94118
0.94706
0.95098
0.95686
0.95686
0.96078
0.95686
0.95686
0.95686
0.95686
0.94706
0.94706
0.93725
0.93725
0.93137
0.93137
0.91569
0.91176
0.90588
0.90588
0.90196
0.90196
0.89608
0.8902
0.88627
0.88627
0.88627
0.88627
0.87647
0.86667
0.86078
0.85686
0.85686
0.85098
0.8451
0.84118
0.83529
0.83529
0.83529
0.84118
0.85098
0.85098
0.85686
0.85686
0.86078
0.86078
0.86078
0.86078
0.86667
0.87059
0.87059
0.87647
0.87647
0.88627
0.88627
0.88039
0.88039
0.88627
0.88627
0.8902
0.8902
0.90588
0.90588
0.91569
0.92549
0.93725
0.93137
0.92157
0.90196
0.8902
0.87647
0.87059
0.86667
0.86667
0.87059
0.8451
0.74118
0.7
0.84118
0.81569
0.75098
0.7
0.67059
0.66471
0.67059
0.5451
0.47451
0.37059
0.32941
0.43529
0.5451
0.66471
0.78039
0.87059
0.92549
0.94118
0.94706
0.95098
0.94706
0.95098
0.94118
0.93725
0.93725
0.94118
0.93137
0.93137
0.93137
0.93137
0.93137
0.93137
0.93137
0.93725
0.93137
0.93137
0.93725
0.93725
0.93725
0.94706
0.94118
0.94706
0.94118
0.95098
0.95098
0.95098
0.95098
0.95098
0.94706
0.94706
0.94118
0.93725
0.93137
0.93137
0.92157
0.91569
0.91176
0.90588
0.90588
0.89608
0.89608
0.89608
0.90196
0.8902
0.89608
0.88627
0.88627
0.88627
0.87647
0.86667
0.86667
0.86078
0.85686
0.85098
0.8451
0.83529
0.83529
0.84118
0.84118
0.8451
0.8451
0.85686
0.85686
0.85686
0.85686
0.86078
0.86078
0.86667
0.86667
0.87059
0.87059
0.87647
0.87647
0.87647
0.88039
0.88627
0.88627
0.88627
0.89608
0.89608
0.90588
0.91176
0.92157
0.92549
0.93137
0.93137
0.92549
0.90196
0.88627
0.87647
0.86667
0.86078
0.86078
0.86078
0.86667
0.81569
0.69608
0.83529
0.83137
0.77059
0.72549
0.6902
0.67059
0.66471
0.58039
0.48039
0.4
0.33529
0.42941
0.53922
0.6549
0.77647
0.86667
0.92157
0.94118
0.95686
0.95686
0.95686
0.95686
0.95686
0.95686
0.95686
0.94706
0.95098
0.94118
0.94706
0.94706
0.94706
0.94118
0.94118
0.94118
0.93725
0.94118
0.93725
0.94118
0.94118
0.94706
0.95098
0.95098
0.95098
0.95686
0.95686
0.95686
0.95686
0.95686
0.94118
0.94706
0.93725
0.93137
0.92157
0.92157
0.91176
0.90588
0.90196
0.89608
0.89608
0.89608
0.89608
0.88627
0.8902
0.88627
0.8902
0.88627
0.88627
0.87647
0.87647
0.86667
0.86667
0.86078
0.85686
0.85098
0.85098
0.84118
0.8451
0.84118
0.84118
0.84118
0.8451
0.85098
0.85686
0.86078
0.86078
0.86078
0.86078
0.87059
0.87059
0.87647
0.87647
0.88039
0.87647
0.88627
0.88039
0.88039
0.88039
0.88039
0.88627
0.8902
0.90196
0.91176
0.91569
0.91176
0.93137
0.93725
0.92549
0.90588
0.8902
0.87647
0.87059
0.86667
0.86078
0.86078
0.86078
0.83529
0.7
0.82549
0.83529
0.79608
0.74118
0.69608
0.67647
0.68039
0.6451
0.51961
0.4451
0.32941
0.31373
0.4549
0.56471
0.7
0.81176
0.89608
0.93725
0.95686
0.95686
0.95686
0.95098
0.95686
0.95098
0.94706
0.94706
0.94118
0.93725
0.94118
0.93137
0.93137
0.93137
0.92549
0.92549
0.93137
0.93137
0.93137
0.93137
0.93725
0.93137
0.94118
0.94706
0.94118
0.95098
0.94706
0.95686
0.95686
0.95686
0.95686
0.95686
0.94706
0.94706
0.93725
0.93137
0.92549
0.92157
0.91569
0.91569
0.90588
0.90588
0.89608
0.89608
0.89608
0.89608
0.88627
0.88627
0.88627
0.88627
0.88039
0.87059
0.86667
0.86078
0.86078
0.85098
0.85098
0.84118
0.8451
0.84118
0.84118
0.84118
0.84118
0.8451
0.8451
0.85098
0.85686
0.85686
0.86078
0.86078
0.86667
0.87059
0.87059
0.87647
0.87059
0.87647
0.87647
0.88039
0.88039
0.88627
0.88627
0.8902
0.89608
0.90588
0.91176
0.92157
0.93137
0.94706
0.93725
0.92549
0.90196
0.88627
0.86667
0.86078
0.86078
0.85686
0.86078
0.81176
0.72549
0.83529
0.82157
0.76667
0.70588
0.67059
0.67059
0.67647
0.57451
0.47451
0.37451
0.3
0.4
0.5
0.62549
0.75098
0.86078
0.91176
0.94118
0.94706
0.95098
0.94706
0.95098
0.94706
0.94118
0.94706
0.94118
0.93725
0.93725
0.93137
0.93137
0.93725
0.93137
0.93725
0.93137
0.93725
0.93725
0.94118
0.93725
0.94118
0.94118
0.95098
0.95098
0.95098
0.95686
0.95686
0.95686
0.96078
0.95686
0.95686
0.95098
0.94706
0.94118
0.93725
0.93137
0.93137
0.92549
0.91569
0.92157
0.90588
0.90588
0.89608
0.89608
0.89608
0.89608
0.8902
0.8902
0.88627
0.88627
0.87647
0.87059
0.86667
0.86078
0.85686
0.85098
0.8451
0.8451
0.8451
0.84118
0.8451
0.84118
0.8451
0.84118
0.85686
0.85098
0.86078
0.85686
0.86078
0.86078
0.87059
0.87059
0.87647
0.87647
0.88039
0.87647
0.88039
0.88039
0.88039
0.88627
0.88627
0.8902
0.89608
0.90588
0.91569
0.92549
0.93137
0.93725
0.93725
0.94118
0.91176
0.90196
0.88039
0.87647
0.87059
0.87647
0.87059
0.87059
0.84118
0.72157
0.83137
0.84118
0.7902
0.73529
0.6902
0.67059
0.67059
0.62941
0.49412
0.43529
0.3451
0.33922
0.4902
0.60588
0.73137
0.82549
0.90588
0.93137
0.95686
0.95686
0.95686
0.95686
0.95686
0.95098
0.95686
0.94118
0.94706
0.93725
0.94118
0.94118
0.94118
0.94118
0.94118
0.93725
0.93725
0.94118
0.93725
0.93725
0.93725
0.94706
0.94706
0.95098
0.95098
0.95686
0.95686
0.95686
0.95686
0.95686
0.95686
0.95686
0.94706
0.94118
0.93137
0.93137
0.92549
0.92157
0.91569
0.91176
0.91176
0.90588
0.90588
0.90588
0.89608
0.8902
0.89608
0.8902
0.8902
0.88627
0.88039
0.87059
0.87059
0.86078
0.86078
0.85686
0.85098
0.8451
0.8451
0.84118
0.83529
0.84118
0.8451
0.85098
0.8451
0.85686
0.85686
0.86078
0.86078
0.87059
0.86667
0.87059
0.87059
0.87059
0.87647
0.88039
0.88039
0.88039
0.88039
0.88039
0.87647
0.88627
0.8902
0.90588
0.91569
0.91569
0.92549
0.93137
0.93137
0.91176
0.89608
0.88627
0.87059
0.86667
0.86078
0.85686
0.86078
0.83529
0.72549
0.7
0.83529
0.80588
0.7549
0.70588
0.67647
0.66471
0.6451
0.52941
0.46078
0.37059
0.32941
0.4451
0.56078
0.68039
0.7902
0.87647
0.92549
0.95098
0.95686
0.95686
0.95098
0.94706
0.94706
0.94706
0.94118
0.94118
0.93137
0.93725
0.93137
0.93137
0.93137
0.93137
0.93137
0.93137
0.93725
0.93137
0.93725
0.94118
0.94118
0.94706
0.94706
0.95098
0.95098
0.95098
0.95686
0.95686
0.95686
0.95098
0.94118
0.94118
0.93725
0.93137
0.93137
0.92549
0.92157
0.91176
0.91176
0.90588
0.90588
0.90196
0.89608
0.8902
0.8902
0.8902
0.8902
0.88627
0.88627
0.87647
0.87059
0.86667
0.86078
0.86078
0.85098
0.8451
0.84118
0.84118
0.83529
0.83529
0.83529
0.83529
0.83529
0.84118
0.8451
0.85098
0.85098
0.85686
0.85686
0.85686
0.86078
0.86078
0.86078
0.86078
0.86667
0.86078
0.86667
0.86667
0.86667
0.86667
0.87647
0.88039
0.8902
0.90588
0.91176
0.91176
0.93137
0.93725
0.92549
0.90196
0.88627
0.87059
0.86078
0.85686
0.85686
0.85098
0.85098
0.83529
0.70588
0.81569
0.83529
0.8
0.73529
0.6902
0.67059
0.68627
0.6549
0.53529
0.43922
0.3098
0.27843
0.4
0.5098
0.6549
0.77647
0.87647
0.91569
0.94118
0.94706
0.94118
0.94118
0.94118
0.94706
0.93725
0.93137
0.93137
0.93137
0.93137
0.93137
0.93137
0.93137
0.93137
0.93137
0.93137
0.93137
0.93137
0.93725
0.93725
0.94118
0.94706
0.95686
0.95686
0.95686
0.95686
0.96078
0.96078
0.96078
0.95686
0.95686
0.95098
0.94706
0.94118
0.93725
0.93137
0.93137
0.92549
0.91569
0.92157
0.90588
0.90588
0.90196
0.90588
0.89608
0.89608
0.88627
0.88627
0.88039
0.87647
0.87059
0.86667
0.86078
0.85686
0.85098
0.84118
0.83529
0.83529
0.84118
0.83529
0.83529
0.83529
0.84118
0.84118
0.8451
0.8451
0.85686
0.86078
0.86078
0.86078
0.86667
0.86667
0.86667
0.86667
0.87059
0.87059
0.87059
0.87059
0.88039
0.88627
0.88627
0.8902
0.90588
0.91569
0.91176
0.93137
0.93725
0.94118
0.90588
0.89608
0.88039
0.87059
0.86078
0.86078
0.85686
0.86078
0.83529
0.75098
0.7451
0.83529
0.8
0.73529
0.6902
0.66471
0.67059
0.64118
0.51961
0.4451
0.34902
0.31961
0.4549
0.56078
0.69608
0.8
0.88627
0.92549
0.94706
0.95098
0.95098
0.94706
0.95098
0.94706
0.94118
0.93725
0.94118
0.93137
0.93725
0.94118
0.93137
0.93137
0.93137
0.93137
0.93137
0.93137
0.93137
0.93137
0.93725
0.94118
0.94118
0.95098
0.94706
0.95686
0.95098
0.95686
0.95686
0.95686
0.95686
0.95098
0.94118
0.94118
0.93725
0.93725
0.93137
0.92549
0.92157
0.91569
0.91176
0.90588
0.90588
0.90196
0.90196
0.89608
0.89608
0.88627
0.88627
0.88039
0.88039
0.87059
0.86667
0.86078
0.86078
0.85686
0.85098
0.84118
0.84118
0.84118
0.84118
0.8451
0.8451
0.8451
0.85098
0.85686
0.85686
0.86078
0.86078
0.86078
0.86078
0.86667
0.86667
0.87647
0.87059
0.87647
0.87647
0.88039
0.87647
0.88627
0.88627
0.88627
0.8902
0.90588
0.90588
0.91176
0.92157
0.93137
0.93137
0.92157
0.90588
0.88627
0.87059
0.86078
0.86078
0.86078
0.86078
0.85686
0.84118
0.73529
0.83137
0.81569
0.77647
0.71569
0.68039
0.66471
0.6549
0.58431
0.48039
0.40392
0.32941
0.4098
0.51569
0.62941
0.75098
0.8451
0.91176
0.94118
0.95686
0.95686
0.95098
0.95686
0.95098
0.95098
0.94118
0.94706
0.94118
0.94118
0.94118
0.94118
0.93725
0.94118
0.93137
0.93725
0.93725
0.93725
0.94118
0.94118
0.94706
0.94118
0.94706
0.95098
0.95686
0.95686
0.95686
0.95686
0.95686
0.95686
0.95686
0.94706
0.94706
0.93725
0.93725
0.92549
0.92549
0.92157
0.91569
0.90588
0.90588
0.90588
0.90196
0.90196
0.90196
0.89608
0.88627
0.88627
0.88627
0.88039
0.88039
0.87647
0.86667
0.86078
0.85686
0.85686
0.8451
0.84118
0.83529
0.83529
0.83529
0.84118
0.84118
0.8451
0.8451
0.85098
0.85098
0.86078
0.86078
0.86078
0.86667
0.87059
0.87059
0.87059
0.87647
0.87647
0.88627
0.88039
0.88627
0.88627
0.88627
0.88627
0.90588
0.91569
0.92549
0.92157
0.93137
0.93725
0.93137
0.91569
0.90588
0.88627
0.87647
0.86667
0.86667
0.86078
0.86078
0.8451
0.6902
0.82157
0.83529
0.8
0.74118
0.69608
0.67059
0.67647
0.6451
0.51569
0.4451
0.3451
0.31373
0.44902
0.56078
0.6902
0.8
0.8902
0.93137
0.95098
0.95686
0.95686
0.95686
0.95686
0.95686
0.95098
0.95098
0.94706
0.94706
0.94118
0.94118
0.94118
0.94706
0.93725
0.93725
0.93137
0.94118
0.94118
0.94706
0.94706
0.94706
0.94706
0.95098
0.95686
0.95686
0.95686
0.95686
0.96078
0.95686
0.95686
0.95686
0.95098
0.94706
0.94118
0.93725
0.93137
0.92549
0.92549
0.91569
0.91176
0.90588
0.90588
0.90588
0.90588
0.90196
0.89608
0.88627
0.88627
0.88627
0.88627
0.87059
0.86667
0.86078
0.86078
0.85686
0.85098
0.8451
0.84118
0.84118
0.83529
0.8451
0.84118
0.8451
0.84118
0.85098
0.85098
0.86078
0.85686
0.86078
0.86078
0.86667
0.86667
0.87059
0.87059
0.87647
0.88039
0.87647
0.88627
0.88627
0.88627
0.88627
0.88627
0.8902
0.90588
0.91176
0.92157
0.93137
0.94118
0.93725
0.91176
0.8902
0.88039
0.86078
0.86078
0.85686
0.85686
0.85098
0.83529
0.7451
0.73137
0.83529
0.81569
0.75098
0.69608
0.66471
0.67059
0.66078
0.55098
0.47059
0.34902
0.3098
0.41569
0.51961
0.65098
0.78039
0.87647
0.92549
0.94118
0.95686
0.95686
0.95686
0.95686
0.95686
0.95098
0.95098
0.94118
0.94706
0.94118
0.93725
0.94118
0.93725
0.93725
0.93137
0.93137
0.93137
0.93725
0.93725
0.94706
0.94706
0.95098
0.95686
0.95686
0.95686
0.95686
0.96078
0.96667
0.96078
0.96078
0.95686
0.95686
0.95098
0.94706
0.94118
0.93137
0.93137
0.93137
0.92157
0.91176
0.90588
0.90588
0.90588
0.90588
0.90196
0.89608
0.89608
0.8902
0.88627
0.88627
0.88039
0.87647
0.87647
0.86078
0.86078
0.85686
0.85686
0.85098
0.85098
0.85098
0.85098
0.8451
0.85098
0.85686
0.86078
0.86078
0.86078
0.86667
0.86078
0.87059
0.87059
0.87647
0.87647
0.88039
0.88039
0.88627
0.88627
0.88627
0.88627
0.88627
0.88627
0.89608
0.90588
0.92157
0.91569
0.92549
0.93725
0.93725
0.92549
0.90588
0.8902
0.88039
0.87059
0.86667
0.87059
0.86667
0.86078
0.84118
0.7451
0.83529
0.82549
0.77647
0.72157
0.68039
0.67059
0.66078
0.5902
0.48039
0.4
0.31961
0.4098
0.5098
0.62549
0.75098
0.8451
0.91569
0.94118
0.95098
0.95098
0.94706
0.94706
0.94118
0.94118
0.94118
0.93725
0.93725
0.93137
0.93137
0.93137
0.93137
0.92549
0.93137
0.93137
0.93137
0.93137
0.93725
0.93725
0.93725
0.94118
0.93725
0.94706
0.94706
0.95098
0.94706
0.95098
0.95098
0.95686
0.94706
0.94706
0.93137
0.93137
0.93137
0.93137
0.91569
0.91176
0.90588
0.90588
0.90588
0.90196
0.90196
0.90196
0.89608
0.8902
0.8902
0.8902
0.88627
0.88039
0.87647
0.87059
0.87059
0.86078
0.86078
0.85098
0.8451
0.84118
0.8451
0.83529
0.83529
0.83529
0.8451
0.8451
0.85098
0.85098
0.85098
0.85686
0.86078
0.86078
0.86078
0.86078
0.86667
0.87059
0.86667
0.87647
0.87647
0.87647
0.87647
0.88039
0.87647
0.88627
0.88627
0.90588
0.91176
0.91176
0.92549
0.93725
0.93137
0.92157
0.90196
0.88627
0.87059
0.86667
0.86078
0.86078
0.86667
0.85098
0.80588
0.69608
0.83529
0.81569
0.76078
0.7098
0.67647
0.66078
0.66471
0.56078
0.47059
0.38431
0.32941
0.42549
0.53529
0.6549
0.77647
0.86667
0.91569
0.94118
0.95098
0.95686
0.94706
0.95098
0.94706
0.94706
0.94706
0.94118
0.93725
0.93725
0.93137
0.93137
0.93137
0.93137
0.93137
0.93725
0.93137
0.93725
0.93137
0.94118
0.94118
0.94706
0.95098
0.95686
0.95686
0.95686
0.95686
0.95686
0.95686
0.95686
0.95098
0.94706
0.94118
0.93725
0.94118
0.93137
0.92549
0.92157
0.91176
0.91176
0.90588
0.90588
0.90588
0.89608
0.90196
0.8902
0.8902
0.88627
0.88627
0.88627
0.88627
0.87647
0.87059
0.86078
0.86078
0.85686
0.8451
0.85098
0.84118
0.84118
0.84118
0.8451
0.8451
0.85098
0.85686
0.86078
0.86078
0.86667
0.86667
0.87059
0.87059
0.87647
0.87059
0.87059
0.87647
0.87059
0.88039
0.87647
0.88039
0.88039
0.88627
0.88627
0.90196
0.91176
0.92157
0.92157
0.93725
0.94118
0.93137
0.91176
0.89608
0.88039
0.87059
0.86667
0.86667
0.86078
0.86078
0.8451
0.76078
0.75098
0.85098
0.82157
0.7549
0.70588
0.68039
0.6902
0.68039
0.56471
0.47059
0.33922
0.2902
0.39412
0.50588
0.6451
0.77059
0.87647
0.92549
0.95098
0.95686
0.95686
0.95686
0.95686
0.95686
0.95098
0.94706
0.94706
0.93725
0.93725
0.93137
0.93137
0.93725
0.93137
0.93137
0.93137
0.93137
0.93137
0.93725
0.93725
0.94706
0.94706
0.95098
0.95098
0.95686
0.95686
0.96078
0.96078
0.96667
0.95686
0.95686
0.96078
0.95686
0.94706
0.94118
0.93725
0.93137
0.93137
0.92549
0.92157
0.91569
0.91176
0.90588
0.90588
0.89608
0.89608
0.88627
0.88627
0.87647
0.87647
0.86667
0.86667
0.86078
0.85686
0.8451
0.8451
0.83529
0.84118
0.83529
0.83529
0.83529
0.84118
0.84118
0.8451
0.8451
0.8451
0.85098
0.85686
0.86078
0.86078
0.86667
0.87059
0.87647
0.87647
0.87647
0.87647
0.88039
0.87647
0.88039
0.88039
0.88627
0.8902
0.90588
0.91569
0.91569
0.93137
0.93725
0.94118
0.93137
0.90588
0.8902
0.87647
0.87059
0.86667
0.86078
0.86078
0.85686
0.84118
0.71569
0.83529
0.84118
0.78627
0.72157
0.67647
0.66078
0.66471
0.6098
0.49412
0.4098
0.32353
0.38039
0.48431
0.6
0.73137
0.83529
0.91176
0.94706
0.95098
0.95686
0.95686
0.95686
0.95686
0.95686
0.95098
0.95098
0.94118
0.95098
0.94118
0.94706
0.94118
0.94118
0.94118
0.93725
0.93725
0.94118
0.94118
0.94118
0.94706
0.94118
0.95098
0.95098
0.95686
0.95686
0.96078
0.95686
0.95686
0.95686
0.95686
0.95098
0.95098
0.94118
0.93725
0.93137
0.93137
0.92157
0.91176
0.90588
0.90588
0.90588
0.90196
0.90196
0.90196
0.89608
0.89608
0.8902
0.88627
0.88039
0.87647
0.87647
0.86078
0.86078
0.86078
0.86078
0.85098
0.8451
0.8451
0.85098
0.8451
0.8451
0.8451
0.8451
0.85098
0.85686
0.86078
0.86078
0.86078
0.86078
0.86078
0.86667
0.87059
0.86667
0.87647
0.87647
0.87647
0.87647
0.88039
0.88627
0.88627
0.89608
0.90588
0.91176
0.91569
0.91569
0.93137
0.93725
0.93725
0.91176
0.90196
0.88627
0.87647
0.86667
0.86667
0.86667
0.86078
0.8451
0.74118
0.7
0.83529
0.81569
0.7549
0.7098
0.67059
0.67059
0.65098
0.5451
0.46471
0.37451
0.33529
0.44902
0.56471
0.68627
0.79608
0.88039
0.92549
0.95098
0.95686
0.95686
0.95686
0.95686
0.95686
0.95686
0.94706
0.94118
0.94118
0.94118
0.94118
0.93725
0.94118
0.93137
0.94118
0.93725
0.94118
0.93725
0.93725
0.93725
0.94118
0.94706
0.95098
0.94706
0.95686
0.95686
0.95686
0.95686
0.95098
0.95098
0.94706
0.94706
0.94118
0.93725
0.93137
0.93137
0.92157
0.91176
0.90588
0.90588
0.90588
0.90196
0.89608
0.89608
0.8902
0.8902
0.88627
0.88627
0.88627
0.88627
0.88039
0.87059
0.86667
0.86078
0.86078
0.85686
0.85098
0.84118
0.84118
0.83529
0.84118
0.84118
0.84118
0.8451
0.85686
0.85098
0.86078
0.86078
0.86078
0.86078
0.86667
0.87059
0.87647
0.87647
0.88039
0.88039
0.88039
0.88039
0.87647
0.88627
0.88627
0.8902
0.90196
0.91176
0.91176
0.91569
0.93137
0.93725
0.92157
0.90588
0.8902
0.88039
0.86667
0.86667
0.86667
0.86667
0.86667
0.84118
0.6902
0.82157
0.83529
0.79608
0.74118
0.69608
0.67059
0.67059
0.63529
0.50588
0.4451
0.33922
0.31961
0.46471
0.58039
0.70588
0.81176
0.89608
0.93725
0.95098
0.95686
0.95686
0.95686
0.95686
0.95686
0.95098
0.94706
0.94118
0.93725
0.94118
0.93137
0.93725
0.93137
0.93137
0.93137
0.93725
0.93137
0.93725
0.93725
0.94706
0.94706
0.95098
0.95098
0.95686
0.95686
0.95686
0.95686
0.96078
0.95686
0.95686
0.95098
0.94706
0.94706
0.94118
0.93725
0.93137
0.92549
0.92157
0.92157
0.91569
0.91176
0.90588
0.90588
0.90196
0.90196
0.89608
0.89608
0.88627
0.88627
0.87059
0.87059
0.86667
0.86078
0.85686
0.85098
0.8451
0.8451
0.84118
0.84118
0.84118
0.84118
0.8451
0.84118
0.8451
0.8451
0.85686
0.85686
0.86078
0.86078
0.86078
0.86078
0.86667
0.87059
0.87059
0.87059
0.87647
0.87647
0.88039
0.88039
0.88627
0.88627
0.89608
0.90588
0.91176
0.92549
0.93137
0.94706
0.95098
0.95098
0.92549
0.90588
0.88627
0.87647
0.86667
0.87059
0.86078
0.86667
0.87059
0.82157
0.7451
0.85098
0.83137
0.76667
0.7
0.67647
0.67059
0.68039
0.57059
0.47451
0.36471
0.3
0.4
0.49412
0.62941
0.7549
0.86078
0.91569
0.94706
0.95686
0.95686
0.95686
0.95686
0.95098
0.95098
0.94706
0.94706
0.93725
0.93725
0.93725
0.93725
0.93137
0.93725
0.93137
0.93137
0.94118
0.93725
0.93725
0.94118
0.94706
0.94706
0.95098
0.95686
0.95686
0.95686
0.96667
0.96078
0.96078
0.95686
0.95686
0.95098
0.95098
0.94118
0.93725
0.93137
0.93137
0.92157
0.92157
0.91569
0.91569
0.90588
0.90588
0.90588
0.90196
0.89608
0.8902
0.88627
0.88627
0.88627
0.87647
0.87647
0.86667
0.86667
0.86078
0.85686
0.8451
0.8451
0.83529
0.84118
0.8451
0.8451
0.84118
0.85098
0.85098
0.85098
0.85686
0.86078
0.86078
0.86078
0.86667
0.86667
0.87059
0.86667
0.87059
0.87059
0.87647
0.87059
0.88039
0.87647
0.88627
0.88627
0.90196
0.90588
0.91176
0.91569
0.93137
0.93137
0.93137
0.91176
0.89608
0.88039
0.87059
0.86667
0.86667
0.87059
0.86078
0.8451
0.6902
0.82157
0.83529
0.80588
0.74118
0.69608
0.66471
0.67059
0.64118
0.51569
0.4451
0.3549
0.32941
0.46471
0.57451
0.7098
0.81176
0.89608
0.93137
0.95098
0.95686
0.95686
0.95686
0.95098
0.95098
0.94706
0.95098
0.94118
0.94706
0.93725
0.94118
0.93725
0.93137
0.93137
0.93725
0.93137
0.93725
0.93137
0.93725
0.93137
0.93725
0.94118
0.94118
0.94118
0.94706
0.95098
0.94706
0.95098
0.94706
0.94706
0.93725
0.93725
0.93137
0.93137
0.92549
0.92157
0.91569
0.91176
0.90588
0.90588
0.90196
0.90196
0.89608
0.8902
0.88627
0.88627
0.88039
0.87647
0.87059
0.86667
0.86667
0.86078
0.86078
0.85686
0.8451
0.84118
0.83529
0.83529
0.83529
0.83529
0.83529
0.83529
0.83529
0.83529
0.84118
0.85098
0.85686
0.85686
0.86078
0.86078
0.86667
0.86667
0.86667
0.87059
0.87647
0.87647
0.87647
0.87647
0.88039
0.88039
0.88039
0.88627
0.89608
0.90588
0.91176
0.92157
0.93137
0.93137
0.93137
0.91176
0.8902
0.88039
0.86667
0.86078
0.86078
0.86078
0.86078
0.84118
0.76078
0.75098
0.83529
0.79608
0.74118
0.6902
0.66471
0.66078
0.63529
0.5
0.4451
0.33922
0.31961
0.47059
0.58039
0.70588
0.81176
0.8902
0.92549
0.94706
0.95098
0.95098
0.95098
0.94706
0.94706
0.94118
0.94118
0.94706
0.93725
0.94118
0.93725
0.94118
0.93137
0.94118
0.93137
0.93725
0.93137
0.93725
0.93725
0.93725
0.94118
0.94706
0.94118
0.95098
0.94706
0.95098
0.95686
0.95098
0.95686
0.95098
0.94118
0.94118
0.93725
0.93137
0.93137
0.92157
0.91569
0.90588
0.90588
0.90588
0.90196
0.89608
0.90196
0.8902
0.8902
0.88627
0.88627
0.88627
0.88039
0.87059
0.87647
0.86078
0.86078
0.85098
0.85098
0.8451
0.8451
0.8451
0.84118
0.83529
0.83529
0.84118
0.84118
0.85098
0.85098
0.86078
0.85686
0.86078
0.86667
0.87059
0.87059
0.87647
0.87059
0.87647
0.88039
0.88039
0.87647
0.88039
0.88039
0.88039
0.88627
0.8902
0.90588
0.91569
0.92157
0.91569
0.93725
0.93725
0.93137
0.90588
0.8902
0.87647
0.86667
0.86078
0.86078
0.86078
0.86078
0.84118
0.76078
0.7549
0.83529
0.81176
0.7451
0.69608
0.68039
0.6902
0.67059
0.53922
0.44902
0.32941
0.2902
0.4098
0.51569
0.66471
0.78039
0.87647
0.92549
0.95098
0.95098
0.95686
0.95098
0.94706
0.94706
0.94706
0.94118
0.94706
0.93725
0.93137
0.93137
0.93137
0.93137
0.93137
0.93137
0.93137
0.93137
0.93137
0.93137
0.93725
0.93725
0.93725
0.94118
0.94706
0.95686
0.95686
0.96667
0.96078
0.96078
0.95686
0.95686
0.95098
0.95098
0.94118
0.93725
0.93137
0.93137
0.92549
0.92549
0.91176
0.91569
0.92157
0.90588
0.90588
0.90196
0.89608
0.8902
0.89608
0.88627
0.88627
0.87647
0.87647
0.86078
0.86078
0.85686
0.85686
0.8451
0.85098
0.8451
0.8451
0.83529
0.84118
0.8451
0.8451
0.85098
0.8451
0.85686
0.85686
0.86078
0.86078
0.86667
0.86667
0.87647
0.86667
0.87647
0.87647
0.88039
0.88039
0.88627
0.88039
0.88627
0.8902
0.90588
0.91176
0.91569
0.92157
0.93137
0.93725
0.93137
0.91569
0.89608
0.88039
0.87059
0.86078
0.86078
0.86078
0.86078
0.84118
0.76078
0.82157
0.83529
0.80588
0.74118
0.6902
0.66471
0.67647
0.65098
0.52941
0.44902
0.3549
0.31961
0.4451
0.56078
0.68627
0.79608
0.88627
0.93137
0.95098
0.95686
0.95686
0.95686
0.95098
0.95098
0.94706
0.95098
0.94706
0.94118
0.93725
0.93725
0.93137
0.93725
0.93137
0.93137
0.94118
0.93725
0.94706
0.94706
0.94706
0.95098
0.95686
0.95098
0.95686
0.95686
0.95686
0.95686
0.95686
0.95686
0.95686
0.95098
0.94706
0.94118
0.94118
0.93137
0.93137
0.92549
0.92549
0.91176
0.91176
0.90588
0.90588
0.90196
0.89608
0.8902
0.8902
0.89608
0.88627
0.88627
0.88627
0.88039
0.87647
0.87059
0.86078
0.86078
0.85686
0.85098
0.84118
0.8451
0.84118
0.84118
0.84118
0.8451
0.8451
0.85098
0.85686
0.86078
0.86078
0.86078
0.86667
0.87059
0.87059
0.87059
0.87647
0.87059
0.87647
0.88039
0.88627
0.88039
0.88627
0.88627
0.8902
0.90196
0.91176
0.91569
0.92157
0.93137
0.93725
0.93137
0.92157
0.89608
0.88627
0.87059
0.86667
0.86078
0.86078
0.86078
0.84118
0.73529
0.69608
0.83529
0.81569
0.76078
0.7098
0.68627
0.67059
0.66078
0.53922
0.46471
0.37451
0.33922
0.4549
0.56471
0.68627
0.8
0.88627
0.93137
0.95098
0.96078
0.95686
0.95686
0.95686
0.95686
0.95686
0.95098
0.95098
0.94706
0.94118
0.94118
0.94706
0.94118
0.94118
0.93725
0.94118
0.93725
0.94118
0.94706
0.95098
0.94706
0.95098
0.95686
0.95686
0.95686
0.95686
0.96078
0.95686
0.96078
0.95686
0.95686
0.95686
0.95098
0.94706
0.93725
0.93137
0.93137
0.92549
0.92549
0.91569
0.92157
0.90588
0.90588
0.90588
0.90588
0.90196
0.90196
0.8902
0.8902
0.88627
0.88627
0.88039
0.87647
0.86078
0.86078
0.86078
0.85686
0.85686
0.85098
0.85098
0.8451
0.85098
0.85686
0.85686
0.85686
0.86078
0.86078
0.86667
0.87059
0.87059
0.87647
0.87059
0.87647
0.88039
0.88627
0.88627
0.88627
0.88627
0.88627
0.88627
0.88627
0.88627
0.89608
0.90588
0.92549
0.92157
0.93137
0.93137
0.94118
0.93137
0.91176
0.89608
0.88627
0.87647
0.87059
0.87647
0.87059
0.86667
0.84118
0.75098
0.83529
0.83137
0.78039
0.72549
0.68627
0.67059
0.66078
0.58039
0.48039
0.4
0.32353
0.4098
0.51569
0.62941
0.75098
0.85686
0.91176
0.94118
0.95098
0.95686
0.95686
0.95098
0.94706
0.94118
0.93725
0.94118
0.93137
0.93137
0.93725
0.93137
0.93137
0.93137
0.93137
0.93137
0.93725
0.93137
0.93137
0.93137
0.93725
0.93137
0.94706
0.94118
0.95098
0.95098
0.95686
0.95686
0.95686
0.95098
0.95686
0.94706
0.94706
0.94118
0.93725
0.93137
0.93137
0.92157
0.91569
0.91176
0.91176
0.90588
0.90196
0.90196
0.89608
0.89608
0.8902
0.88627
0.88039
0.88039
0.87059
0.87059
0.86078
0.86078
0.85686
0.85098
0.8451
0.8451
0.84118
0.8451
0.84118
0.84118
0.84118
0.84118
0.85098
0.85098
0.85686
0.85686
0.86078
0.86078
0.86667
0.86667
0.87647
0.87059
0.87647
0.87059
0.87647
0.87647
0.88039
0.88039
0.88039
0.88627
0.88627
0.89608
0.90588
0.91569
0.91569
0.93137
0.93725
0.94118
0.92157
0.89608
0.88039
0.87059
0.86078
0.86078
0.86078
0.86078
0.8451
0.81176
0.72157
0.83529
0.82157
0.76667
0.7
0.67059
0.67059
0.68039
0.58039
0.48431
0.37059
0.29412
0.38431
0.48039
0.61569
0.74118
0.85686
0.91176
0.94706
0.95098
0.95686
0.94706
0.95098
0.94706
0.94118
0.94118
0.94118
0.93725
0.93725
0.93137
0.93137
0.93137
0.93137
0.93137
0.93137
0.93725
0.93725
0.93725
0.93725
0.94118
0.94706
0.94706
0.94706
0.95686
0.95686
0.96078
0.96078
0.96667
0.95686
0.95686
0.95098
0.95686
0.95098
0.94706
0.93725
0.93137
0.93137
0.92549
0.92157
0.91176
0.90588
0.90588
0.90196
0.90196
0.89608
0.8902
0.88627
0.88627
0.88627
0.88039
0.87647
0.86667
0.86078
0.86078
0.85686
0.8451
0.8451
0.83529
0.83529
0.83529
0.84118
0.8451
0.85098
0.85098
0.85686
0.85686
0.86078
0.86078
0.86667
0.87647
0.87647
0.87059
0.87059
0.87647
0.87647
0.87647
0.87647
0.88039
0.88039
0.88039
0.88627
0.89608
0.90588
0.91569
0.91569
0.93137
0.93725
0.94118
0.92157
0.90588
0.8902
0.88039
0.87059
0.86667
0.86078
0.86078
0.85098
0.80588
0.7
0.83529
0.81569
0.7549
0.7098
0.66471
0.66078
0.65098
0.56078
0.46471
0.37451
0.31373
0.41961
0.52549
0.6451
0.76078
0.86078
0.90588
0.93725
0.95098
0.94706
0.95098
0.94706
0.94706
0.94118
0.93725
0.93137
0.93137
0.93137
0.93137
0.93137
0.93137
0.92549
0.93137
0.92549
0.93137
0.92549
0.93137
0.93137
0.93137
0.93137
0.93725
0.94118
0.93725
0.94706
0.94118
0.94706
0.94118
0.94706
0.93725
0.93725
0.93137
0.93137
0.92157
0.92157
0.91176
0.91176
0.90588
0.90196
0.89608
0.8902
0.8902
0.8902
0.8902
0.8902
0.88627
0.88627
0.88627
0.88039
0.87059
0.87059
0.86078
0.86078
0.85686
0.8451
0.8451
0.83529
0.83529
0.83529
0.84118
0.83529
0.8451
0.84118
0.8451
0.85098
0.8451
0.85098
0.86078
0.86078
0.86078
0.86078
0.86078
0.86078
0.86078
0.86667
0.86667
0.86667
0.87059
0.87059
0.87059
0.87647
0.88039
0.89608
0.90588
0.91569
0.91176
0.92549
0.93137
0.93137
0.90588
0.8902
0.87647
0.86667
0.86078
0.86078
0.86078
0.85686
0.83137
0.69608
0.82157
0.83529
0.79608
0.73529
0.6902
0.66471
0.66078
0.61961
0.49412
0.42941
0.33922
0.32941
0.48431
0.59608
0.72549
0.82157
0.90196
0.93137
0.95098
0.95686
0.95098
0.94706
0.94706
0.94706
0.94118
0.93725
0.93725
0.93137
0.93137
0.93137
0.93137
0.93137
0.93137
0.93137
0.93137
0.93137
0.93137
0.93137
0.93725
0.94118
0.93725
0.94118
0.94706
0.95098
0.95098
0.95098
0.95098
0.95098
0.94706
0.95098
0.94118
0.93725
0.93137
0.93137
0.92157
0.91569
0.92157
0.90588
0.90588
0.90196
0.90196
0.89608
0.89608
0.88627
0.8902
0.88627
0.88627
0.87647
0.87059
0.86667
0.86667
0.86078
0.85686
0.85098
0.8451
0.84118
0.84118
0.8451
0.84118
0.83529
0.84118
0.84118
0.84118
0.85098
0.85098
0.85686
0.85686
0.86078
0.85686
0.86078
0.86078
0.86667
0.86078
0.86667
0.86667
0.86667
0.87059
0.87059
0.87059
0.87059
0.87647
0.88627
0.89608
0.90588
0.91569
0.92157
0.93137
0.93725
0.91569
0.8902
0.88039
0.86078
0.86078
0.85686
0.85686
0.85098
0.8451
0.83529
0.75098
0.83137
0.82157
0.77059
0.70588
0.67647
0.67059
0.68039
0.6
0.49412
0.38039
0.2902
0.3549
0.4549
0.57451
0.71569
0.82157
0.90196
0.92549
0.94118
0.94118
0.94706
0.94118
0.93725
0.93725
0.93725
0.93137
0.93137
0.93137
0.92549
0.93137
0.92549
0.92157
0.92157
0.92549
0.92549
0.93137
0.92549
0.93137
0.93137
0.93725
0.93725
0.94706
0.94706
0.95098
0.95686
0.95686
0.95686
0.95686
0.95686
0.95686
0.95098
0.94706
0.94118
0.94118
0.93137
0.93137
0.92157
0.91569
0.92157
0.91176
0.90588
0.90196
0.90588
0.90196
0.89608
0.88627
0.88627
0.88627
0.88039
0.87059
0.87059
0.86078
0.86078
0.85686
0.85686
0.8451
0.8451
0.84118
0.84118
0.84118
0.85098
0.85098
0.85686
0.86078
0.85686
0.86078
0.86667
0.87059
0.87059
0.87647
0.87059
0.88039
0.87647
0.88627
0.88627
0.88627
0.88627
0.88627
0.88627
0.8902
0.89608
0.90588
0.91569
0.93137
0.93137
0.94118
0.95098
0.94118
0.92157
0.90196
0.88627
0.87647
0.87059
0.86667
0.86667
0.86667
0.85098
0.7549
0.72549
0.8451
0.81569
0.75098
0.70588
0.67059
0.66471
0.67059
0.5451
0.47059
0.36471
0.32353
0.43922
0.53922
0.67059
0.78627
0.88039
0.93137
0.95098
0.95686
0.95686
0.95686
0.95686
0.95686
0.95098
0.95098
0.94118
0.94118
0.93725
0.93725
0.94118
0.94118
0.93725
0.93725
0.93725
0.93725
0.94118
0.93725
0.94706
0.94118
0.95098
0.95686
0.95686
0.95686
0.95686
0.95686
0.95686
0.95686
0.96078
0.95686
0.95098
0.94118
0.94118
0.93137
0.93725
0.93137
0.93137
0.92157
0.92157
0.91569
0.91569
0.90588
0.90588
0.90588
0.90588
0.90196
0.90196
0.8902
0.8902
0.88627
0.87059
0.87059
0.86078
0.86078
0.85686
0.85098
0.84118
0.8451
0.8451
0.8451
0.85098
0.85686
0.85686
0.85686
0.85686
0.86078
0.86078
0.86667
0.87059
0.87059
0.87647
0.87647
0.88039
0.88627
0.88627
0.88627
0.88627
0.88627
0.88627
0.88627
0.8902
0.89608
0.91176
0.92157
0.92549
0.93137
0.94118
0.94118
0.93137
0.90588
0.89608
0.88039
0.87647
0.87059
0.86667
0.87059
0.86078
0.85098
0.76667
0.84118
0.83137
0.77647
0.72549
0.6902
0.67059
0.66471
0.58039
0.48039
0.4
0.33922
0.41961
0.51961
0.64118
0.76667
0.86078
0.91569
0.94118
0.95686
0.95098
0.94706
0.95686
0.95686
0.95686
0.95098
0.94706
0.94706
0.94706
0.94118
0.94118
0.93725
0.94118
0.93725
0.94118
0.94118
0.94118
0.93725
0.94118
0.93725
0.94118
0.94706
0.95098
0.95686
0.95686
0.95686
0.95686
0.95686
0.95686
0.95686
0.95686
0.95098
0.94118
0.93725
0.93137
0.92549
0.92157
0.92157
0.91176
0.91569
0.91176
0.91176
0.90588
0.90196
0.89608
0.90196
0.89608
0.89608
0.88627
0.88627
0.88627
0.88039
0.87647
0.86667
0.86078
0.85686
0.85686
0.85098
0.85686
0.8451
0.85098
0.8451
0.85686
0.85686
0.86078
0.86078
0.86667
0.86667
0.87059
0.87647
0.88039
0.88039
0.88627
0.88627
0.88627
0.88627
0.88627
0.88627
0.88627
0.88627
0.88627
0.8902
0.8902
0.90588
0.91176
0.91569
0.92549
0.93137
0.93137
0.91569
0.89608
0.88627
0.86667
0.86667
0.86078
0.86078
0.86078
0.8451
0.80588
0.70588
0.83529
0.81176
0.7549
0.70588
0.67647
0.66471
0.65098
0.55098
0.46471
0.37451
0.33529
0.4451
0.53922
0.66471
0.78039
0.87647
0.92549
0.94706
0.95686
0.95686
0.95686
0.94706
0.94706
0.94706
0.94118
0.93725
0.93725
0.93137
0.93137
0.93137
0.92549
0.93137
0.92549
0.93137
0.92549
0.93137
0.93137
0.93725
0.93725
0.94118
0.94118
0.94706
0.94118
0.94706
0.95098
0.95098
0.95686
0.95686
0.94706
0.94706
0.93725
0.93137
0.93137
0.92549
0.92157
0.91569
0.91569
0.90588
0.90588
0.90196
0.90196
0.89608
0.89608
0.88627
0.88627
0.88039
0.88039
0.87059
0.87647
0.86667
0.86078
0.85686
0.85686
0.85098
0.84118
0.8451
0.84118
0.84118
0.84118
0.8451
0.84118
0.8451
0.85098
0.85686
0.86078
0.86078
0.86078
0.86667
0.86667
0.87059
0.86667
0.87059
0.87059
0.88039
0.88039
0.88039
0.88627
0.88627
0.88627
0.88627
0.88627
0.89608
0.90588
0.92157
0.92549
0.93137
0.94706
0.94706
0.92549
0.90196
0.88627
0.87647
0.87059
0.86078
0.86078
0.86078
0.8451
0.81176
0.7
0.83529
0.83137
0.77059
0.70588
0.67059
0.66471
0.68627
0.5902
0.4902
0.37451
0.2902
0.37059
0.47059
0.59608
0.73529
0.8451
0.91176
0.93725
0.95098
0.95686
0.95686
0.95098
0.95098
0.94118
0.94706
0.94118
0.93725
0.93725
0.93725
0.93137
0.93137
0.93137
0.93137
0.93137
0.93137
0.93137
0.93137
0.93725
0.94118
0.95098
0.94706
0.95098
0.95098
0.95686
0.95686
0.95686
0.95686
0.96078
0.95686
0.95686
0.94706
0.94118
0.94118
0.93137
0.92549
0.92549
0.91176
0.90588
0.90588
0.90588
0.90588
0.90196
0.90196
0.89608
0.88627
0.88627
0.88627
0.88627
0.88039
0.87059
0.86667
0.86078
0.86078
0.85686
0.85098
0.8451
0.8451
0.84118
0.84118
0.8451
0.84118
0.85098
0.85098
0.85686
0.85098
0.86078
0.86078
0.86078
0.86078
0.86667
0.86667
0.87059
0.87059
0.87647
0.87059
0.87647
0.87647
0.88627
0.88627
0.88627
0.88627
0.89608
0.90588
0.91569
0.92157
0.93137
0.93725
0.93137
0.91176
0.8902
0.88039
0.87059
0.86078
0.86078
0.86078
0.85686
0.83529
0.69608
0.82157
0.83529
0.8
0.73529
0.6902
0.66471
0.67059
0.63529
0.50588
0.43529
0.33922
0.32353
0.47059
0.58431
0.7098
0.81569
0.89608
0.93137
0.95098
0.95686
0.95686
0.95686
0.95098
0.95686
0.95098
0.95098
0.94706
0.94706
0.94118
0.94118
0.94118
0.94706
0.93725
0.94118
0.94706
0.94118
0.94118
0.93725
0.94118
0.93725
0.94706
0.94118
0.95098
0.94706
0.95686
0.95686
0.95686
0.95686
0.95098
0.94706
0.94706
0.94118
0.94118
0.93137
0.93137
0.92549
0.92157
0.91569
0.91569
0.90588
0.90588
0.90196
0.90196
0.89608
0.89608
0.89608
0.8902
0.89608
0.88627
0.88039
0.88039
0.87647
0.86078
0.86078
0.85686
0.85686
0.8451
0.85098
0.8451
0.8451
0.8451
0.85098
0.85098
0.85686
0.85686
0.86078
0.86078
0.86667
0.86667
0.87059
0.87647
0.87059
0.88039
0.88039
0.88627
0.88627
0.88627
0.88039
0.88039
0.88039
0.88627
0.8902
0.90588
0.91569
0.91569
0.91569
0.93137
0.93137
0.93137
0.90588
0.90196
0.88039
0.87059
0.86667
0.86667
0.87059
0.86078
0.84118
0.7
0.83137
0.83529
0.78627
0.73137
0.6902
0.66471
0.67059
0.6098
0.4902
0.41961
0.33922
0.3902
0.5
0.61569
0.7451
0.84118
0.91176
0.94118
0.95686
0.95686
0.95686
0.95098
0.95098
0.95686
0.94706
0.94118
0.94118
0.94118
0.93725
0.94118
0.93137
0.93725
0.93137
0.93137
0.93725
0.93725
0.93725
0.94118
0.93725
0.94706
0.94118
0.94706
0.95098
0.94706
0.95098
0.95098
0.95098
0.95098
0.95686
0.94706
0.95098
0.93137
0.93725
0.93137
0.93137
0.92157
0.91569
0.91176
0.90588
0.90196
0.90196
0.89608
0.90196
0.89608
0.89608
0.88627
0.88627
0.88039
0.87647
0.87647
0.87059
0.86078
0.86078
0.85686
0.85098
0.84118
0.83529
0.84118
0.83529
0.84118
0.83529
0.84118
0.8451
0.8451
0.85098
0.85686
0.85686
0.85686
0.86078
0.86078
0.86667
0.87059
0.86667
0.87059
0.87059
0.87059
0.87647
0.87647
0.88039
0.88039
0.88627
0.8902
0.90588
0.90588
0.90588
0.92157
0.93137
0.92157
0.90588
0.88627
0.87647
0.86078
0.85686
0.85686
0.85686
0.85098
0.83529
0.72549
0.69608
0.83137
0.80588
0.7549
0.7
0.67647
0.67059
0.68627
0.56078
0.47451
0.3549
0.3098
0.4
0.5098
0.62941
0.7549
0.85686
0.91176
0.93137
0.93725
0.93725
0.93725
0.93137
0.93725
0.93725
0.93137
0.93137
0.93137
0.93137
0.93137
0.92549
0.92157
0.92549
0.92549
0.93137
0.92157
0.93137
0.93137
0.93137
0.93137
0.93725
0.93137
0.94118
0.94118
0.94706
0.94706
0.95098
0.94706
0.95098
0.94118
0.94118
0.94118
0.93725
0.93725
0.93137
0.92549
0.92157
0.92549
0.91176
0.91176
0.90588
0.90588
0.89608
0.89608
0.8902
0.8902
0.88627
0.88627
0.88039
0.88039
0.87059
0.86667
0.86078
0.85686
0.8451
0.8451
0.84118
0.83529
0.84118
0.83529
0.83529
0.84118
0.8451
0.85098
0.85686
0.85686
0.86078
0.86078
0.86667
0.87059
0.87647
0.87647
0.88039
0.88039
0.88627
0.88627
0.88627
0.88039
0.88039
0.88627
0.88627
0.8902
0.90588
0.91176
0.91569
0.91569
0.93137
0.93725
0.93137
0.91569
0.89608
0.88627
0.87059
0.86667
0.86078
0.86667
0.86078
0.8451
0.76667
0.82549
0.84118
0.8
0.74118
0.69608
0.66471
0.67059
0.64118
0.51961
0.44902
0.3549
0.33529
0.46471
0.58039
0.70588
0.80588
0.8902
0.93137
0.94706
0.95686
0.95686
0.95686
0.95686
0.95686
0.95098
0.95098
0.94118
0.94118
0.94118
0.93725
0.93725
0.93137
0.93137
0.93137
0.93137
0.93137
0.93137
0.93725
0.93725
0.93137
0.94118
0.93725
0.95098
0.94706
0.95098
0.95686
0.95686
0.95686
0.95686
0.94706
0.94706
0.93725
0.93725
0.93137
0.92549
0.92157
0.92157
0.91176
0.90588
0.90588
0.90588
0.90196
0.90196
0.89608
0.88627
0.88627
0.88627
0.88627
0.88627
0.87647
0.87059
0.86667
0.86078
0.85686
0.8451
0.85098
0.84118
0.84118
0.83529
0.83529
0.84118
0.8451
0.85098
0.85686
0.86078
0.86078
0.86078
0.86667
0.86667
0.87059
0.87647
0.88039
0.88039
0.87647
0.88627
0.88039
0.88627
0.88039
0.88627
0.88627
0.8902
0.89608
0.90588
0.91176
0.91176
0.92157
0.93137
0.93137
0.92549
0.90588
0.88627
0.87647
0.87059
0.87059
0.87059
0.87059
0.86667
0.8451
0.75098
0.83529
0.82549
0.78039
0.72549
0.6902
0.66471
0.67059
0.58431
0.48431
0.4
0.33922
0.42941
0.52941
0.6451
0.77059
0.86078
0.91569
0.94118
0.95686
0.95686
0.95098
0.95098
0.94706
0.94706
0.94118
0.94706
0.94118
0.94706
0.94118
0.94118
0.93725
0.93725
0.93725
0.93725
0.93725
0.93725
0.94118
0.93725
0.94118
0.94706
0.95098
0.94706
0.95098
0.94706
0.95686
0.95098
0.95686
0.94706
0.95098
0.94706
0.94118
0.93137
0.93137
0.92157
0.92157
0.91176
0.90588
0.90196
0.90196
0.89608
0.89608
0.89608
0.89608
0.8902
0.88627
0.88627
0.88627
0.88039
0.87647
0.86667
0.86078
0.86078
0.85686
0.85098
0.84118
0.83529
0.83529
0.84118
0.84118
0.84118
0.84118
0.84118
0.8451
0.85098
0.85098
0.86078
0.86078
0.86078
0.86078
0.86078
0.86078
0.86078
0.87059
0.87059
0.87059
0.87059
0.87647
0.87647
0.88039
0.88039
0.88627
0.89608
0.90588
0.90588
0.91176
0.92549
0.93137
0.92549
0.91176
0.8902
0.88039
0.87059
0.86667
0.87059
0.86667
0.86667
0.8451
0.73529
0.7098
0.83529
0.80588
0.75098
0.7
0.67059
0.66078
0.64118
0.51961
0.44902
0.35882
0.33529
0.46471
0.57059
0.6902
0.8
0.88039
0.92157
0.94118
0.95686
0.95686
0.95686
0.95098
0.94706
0.95098
0.94706
0.94118
0.93725
0.94118
0.93725
0.93725
0.93137
0.93725
0.93137
0.93137
0.93137
0.93725
0.93137
0.93725
0.94118
0.93725
0.94118
0.94118
0.94706
0.95098
0.94706
0.95098
0.95098
0.95098
0.94706
0.94118
0.93725
0.93137
0.93137
0.92549
0.92549
0.91176
0.90588
0.90196
0.90588
0.90196
0.90588
0.89608
0.89608
0.8902
0.88627
0.88627
0.88627
0.88039
0.87647
0.86667
0.86078
0.86078
0.85686
0.8451
0.84118
0.84118
0.83529
0.83529
0.83529
0.84118
0.83529
0.84118
0.83529
0.8451
0.85098
0.86078
0.86078
0.86078
0.86078
0.86078
0.86078
0.86078
0.86078
0.86078
0.86078
0.86667
0.86667
0.87059
0.87059
0.87647
0.88627
0.8902
0.90588
0.90588
0.91569
0.93137
0.94118
0.92157
0.90588
0.88627
0.87647
0.86078
0.86078
0.85686
0.86078
0.85098
0.83529
0.7
0.81569
0.83529
0.80588
0.74118
0.6902
0.66471
0.67647
0.6549
0.52941
0.4451
0.31961
0.29412
0.41569
0.52549
0.66471
0.78039
0.87647
0.92157
0.94118
0.94706
0.94706
0.94706
0.94118
0.94706
0.93725
0.94118
0.93725
0.93137
0.93137
0.93137
0.93137
0.93137
0.93137
0.93137
0.93137
0.93137
0.93725
0.93137
0.93725
0.93137
0.94118
0.94706
0.94706
0.95098
0.95686
0.95686
0.96078
0.95686
0.95686
0.95098
0.94706
0.94706
0.94118
0.93725
0.93137
0.92157
0.92157
0.91569
0.91176
0.90588
0.90196
0.90196
0.89608
0.90196
0.89608
0.8902
0.88627
0.88627
0.87059
0.87059
0.86078
0.86078
0.85686
0.85686
0.85098
0.8451
0.83529
0.84118
0.84118
0.8451
0.84118
0.84118
0.8451
0.84118
0.85686
0.85686
0.86078
0.86078
0.87059
0.87059
0.87647
0.87059
0.88039
0.87647
0.88627
0.88039
0.88627
0.88627
0.88627
0.88627
0.8902
0.90588
0.91569
0.92157
0.92549
0.93137
0.94118
0.92549
0.91176
0.89608
0.88627
0.87647
0.86667
0.86667
0.86667
0.86667
0.84118
0.72157
0.83137
0.83529
0.79608
0.74118
0.6902
0.67059
0.66471
0.62941
0.50588
0.43529
0.33922
0.33529
0.48431
0.59608
0.72549
0.83137
0.90196
0.93725
0.95686
0.95686
0.95686
0.95686
0.95686
0.95098
0.94706
0.94118
0.94118
0.93725
0.94118
0.93725
0.93725
0.93725
0.93725
0.93137
0.93137
0.93725
0.93137
0.93725
0.93725
0.94118
0.94118
0.94118
0.94706
0.95098
0.94706
0.95686
0.95098
0.95686
0.95098
0.94706
0.94118
0.93725
0.93137
0.93137
0.92157
0.91569
0.91569
0.91176
0.90588
0.90588
0.90196
0.89608
0.89608
0.89608
0.8902
0.8902
0.89608
0.88039
0.87647
0.87059
0.86667
0.86078
0.86078
0.85098
0.85098
0.8451
0.85098
0.84118
0.8451
0.84118
0.8451
0.85098
0.85686
0.85686
0.86078
0.86078
0.86078
0.86667
0.87059
0.87059
0.87647
0.88039
0.88039
0.88627
0.88627
0.88627
0.88627
0.88627
0.88039
0.88627
0.88627
0.90196
0.90588
0.91569
0.91176
0.93137
0.93725
0.93137
0.92157
0.90196
0.88627
0.87647
0.87059
0.86667
0.87059
0.86667
0.8451
0.73529
0.7098
0.83529
0.81176
0.75098
0.70588
0.67647
0.67059
0.6451
0.52941
0.4549
0.37059
0.33922
0.46078
0.56471
0.69608
0.8
0.88039
0.92157
0.94706
0.95686
0.95098
0.95686
0.95098
0.95686
0.95098
0.94706
0.94118
0.94706
0.93137
0.94118
0.93725
0.93725
0.93137
0.93137
0.93137
0.93137
0.93137
0.93137
0.93137
0.93725
0.93725
0.94118
0.93725
0.94118
0.94706
0.94706
0.95098
0.94118
0.95098
0.94706
0.94118
0.93725
0.93137
0.92549
0.92157
0.91569
0.91176
0.90588
0.90196
0.90196
0.90196
0.8902
0.8902
0.88627
0.88627
0.88627
0.88627
0.88039
0.87647
0.86667
0.86667
0.86078
0.85686
0.85098
0.85098
0.8451
0.83529
0.83529
0.83529
0.84118
0.83529
0.84118
0.84118
0.8451
0.85098
0.85686
0.85686
0.86078
0.86078
0.86078
0.86078
0.86667
0.87059
0.87059
0.87647
0.87059
0.88039
0.87647
0.88627
0.88627
0.8902
0.89608
0.90588
0.91569
0.92157
0.92549
0.93137
0.93137
0.92157
0.89608
0.88627
0.86667
0.86078
0.85686
0.85686
0.85686
0.84118
0.80588
0.70588
0.83137
0.81569
0.7549
0.70588
0.67647
0.67059
0.68039
0.58039
0.48039
0.36471
0.29412
0.38039
0.48431
0.60588
0.74118
0.8451
0.90588
0.93137
0.94706
0.94706
0.94706
0.94118
0.94118
0.94118
0.93725
0.93725
0.93725
0.93137
0.93137
0.93137
0.93137
0.93137
0.93137
0.93137
0.93137
0.93137
0.93137
0.93137
0.93725
0.93725
0.93725
0.94706
0.94706
0.95686
0.95686
0.95686
0.95686
0.95686
0.95686
0.95686
0.95098
0.94706
0.94118
0.94118
0.93725
0.93137
0.93137
0.92549
0.91569
0.91176
0.91176
0.90588
0.90588
0.90196
0.89608
0.8902
0.8902
0.88627
0.88627
0.87647
0.87059
0.86667
0.86078
0.85686
0.85098
0.8451
0.8451
0.84118
0.84118
0.84118
0.8451
0.85686
0.85686
0.86078
0.86078
0.86078
0.86078
0.87059
0.87059
0.87647
0.87647
0.88039
0.88039
0.88039
0.88039
0.88039
0.88627
0.88627
0.88627
0.8902
0.89608
0.90588
0.92157
0.92157
0.93137
0.93725
0.94706
0.93137
0.90588
0.8902
0.88039
0.87059
0.86667
0.86667
0.86667
0.86078
0.84118
0.76078
0.84118
0.83137
0.77059
0.7098
0.67647
0.66471
0.67059
0.59608
0.49412
0.40392
0.31961
0.39412
0.49412
0.61569
0.74118
0.8451
0.91176
0.94706
0.95686
0.95686
0.95686
0.95686
0.95686
0.95686
0.94706
0.94706
0.94118
0.94706
0.93725
0.93725
0.94118
0.93725
0.93137
0.93137
0.93137
0.93725
0.93137
0.94118
0.94118
0.94118
0.95098
0.95098
0.95686
0.95686
0.96078
0.95686
0.95686
0.95686
0.95686
0.95686
0.95098
0.94118
0.94118
0.93137
0.93137
0.92549
0.92157
0.92549
0.91176
0.90588
0.90588
0.90588
0.90196
0.90588
0.8902
0.88627
0.88627
0.88627
0.87647
0.88039
0.86078
0.86078
0.85686
0.85098
0.8451
0.84118
0.84118
0.84118
0.84118
0.8451
0.8451
0.8451
0.85098
0.8451
0.86078
0.86078
0.86078
0.86078
0.86667
0.86667
0.87647
0.87647
0.87647
0.87647
0.88039
0.87647
0.88039
0.88039
0.88627
0.8902
0.89608
0.90196
0.91176
0.91569
0.92549
0.93137
0.93137
0.91569
0.90196
0.88627
0.87059
0.86078
0.86078
0.86078
0.86078
0.8451
0.81176
0.74118
0.83529
0.81176
0.7549
0.7
0.66471
0.66078
0.6451
0.5451
0.46471
0.37451
0.32941
0.4451
0.5451
0.67059
0.78039
0.87647
0.92157
0.94118
0.95098
0.94706
0.95098
0.94706
0.95098
0.94118
0.94118
0.93725
0.93137
0.93137
0.93137
0.93137
0.93137
0.92549
0.93137
0.92549
0.93137
0.92549
0.93137
0.92549
0.93137
0.93725
0.93137
0.94118
0.94118
0.94706
0.94706
0.95098
0.94706
0.95686
0.94118
0.94118
0.93137
0.93137
0.92549
0.92157
0.91176
0.91176
0.90588
0.90196
0.89608
0.89608
0.88627
0.88627
0.88627
0.88627
0.88039
0.88039
0.88039
0.87647
0.87059
0.86667
0.86078
0.85686
0.85098
0.8451
0.85098
0.83529
0.83529
0.83529
0.83529
0.83529
0.84118
0.84118
0.85098
0.8451
0.85686
0.85686
0.86078
0.86078
0.86667
0.87059
0.87059
0.87647
0.87059
0.87647
0.87647
0.88039
0.87647
0.88039
0.87647
0.88627
0.89608
0.90588
0.90588
0.91176
0.92549
0.93137
0.92549
0.91569
0.8902
0.88627
0.86667
0.86667
0.86078
0.85686
0.83529
0.70588
0.83137
0.83529
0.78627
0.73137
0.68627
0.66078
0.6549
0.59608
0.48039
0.4098
0.32941
0.38431
0.50588
0.61569
0.74118
0.83529
0.91176
0.93137
0.95098
0.95098
0.94706
0.94706
0.94706
0.94118
0.94118
0.93725
0.93725
0.93137
0.93137
0.93137
0.93137
0.93137
0.92549
0.93137
0.93137
0.93137
0.93137
0.94118
0.93725
0.94706
0.94118
0.94706
0.95098
0.95686
0.95686
0.95686
0.95686
0.95686
0.95098
0.94706
0.94118
0.93725
0.93137
0.93137
0.92549
0.92157
0.91176
0.90588
0.90588
0.89608
0.90196
0.8902
0.89608
0.88627
0.8902
0.88627
0.88627
0.87059
0.87059
0.86667
0.86078
0.86078
0.85686
0.8451
0.8451
0.84118
0.83529
0.84118
0.83529
0.83529
0.83529
0.83529
0.84118
0.85098
0.85098
0.85686
0.85686
0.86078
0.86078
0.86667
0.86667
0.87059
0.86667
0.87059
0.86667
0.87059
0.87059
0.87647
0.87059
0.87647
0.88039
0.88627
0.88627
0.90196
0.90588
0.90588
0.92549
0.93137
0.93725
0.90588
0.88627
0.87059
0.86078
0.85098
0.85098
0.85098
0.85686
0.83529
0.74118
0.73137
0.83529
0.81569
0.75098
0.69608
0.67059
0.68039
0.68627
0.5549
0.47059
0.33922
0.2902
0.3902
0.49412
0.63529
0.76078
0.87059
0.91569
0.94118
0.95098
0.95098
0.94706
0.95686
0.94706
0.94706
0.93725
0.93725
0.93137
0.93725
0.93137
0.93137
0.93137
0.93137
0.93137
0.93137
0.93137
0.93137
0.93137
0.93137
0.93725
0.93725
0.94706
0.94706
0.95686
0.95686
0.95686
0.95686
0.95686
0.95686
0.95686
0.95098
0.94706
0.93725
0.93725
0.93137
0.92549
0.92157
0.92157
0.91569
0.91176
0.90196
0.90196
0.89608
0.8902
0.88627
0.88627
0.88627
0.87647
0.87059
0.87059
0.87059
0.86078
0.86078
0.85098
0.8451
0.8451
0.84118
0.84118
0.83529
0.83529
0.84118
0.84118
0.8451
0.85098
0.85686
0.86078
0.86078
0.86078
0.86667
0.87059
0.87059
0.87647
0.87059
0.88039
0.87059
0.87647
0.87647
0.88039
0.88039
0.88627
0.88627
0.90196
0.91176
0.91569
0.92549
0.93137
0.93137
0.92157
0.89608
0.88627
0.87059
0.86667
0.86078
0.86078
0.86078
0.85686
0.83529
0.7549
0.83529
0.82157
0.76667
0.7098
0.67059
0.6549
0.66078
0.58039
0.48039
0.39412
0.31961
0.4
