0.875
0.85938
0.84375
0.84961
0.875
0.88867
0.875
0.88477
0.90039
0.9043
0.88867
0.86914
0.85547
0.85938
0.84961
0.84375
0.82422
0.80469
0.80469
0.81055
0.80469
0.81445
0.83984
0.86523
0.43555
0.015625
-0.083984
0.0097656
0.17578
0.42578
0.5957
0.74414
0.85938
0.90039
0.93555
0.95508
0.94922
0.96484
0.96875
0.98047
1.0039
0.99023
0.98438
0.97461
0.99023
1.0098
1.0039
1.0098
1.0137
1.0039
1
1
1.0098
1
1.0039
1.0098
1
1.0352
1.0254
1.0137
0.99023
0.98047
0.95508
0.93555
0.90039
0.87891
0.84375
0.84375
0.84961
0.81055
0.77539
0.75391
0.74414
0.76563
0.76563
0.75391
0.74414
0.75977
0.76953
0.78516
0.78906
0.80469
0.81445
0.82422
0.83398
0.84375
0.83398
0.83398
0.82031
0.83008
0.84961
0.85547
0.86914
0.83398
0.82422
0.82422
0.83398
0.84961
0.84961
0.84375
0.82422
0.80469
0.82031
0.83398
0.84375
0.79883
0.80469
0.81445
0.81055
0.80469
0.82031
0.83008
0.82422
0.90039
0.625
0.21484
0.025391
0.076172
0.21484
0.45508
0.61914
0.78516
0.87891
0.93555
0.95508
0.98438
0.96875
0.94531
0.95508
0.95898
0.93945
0.95898
0.96484
0.95508
0.95898
0.94531
0.95508
0.96484
0.94531
0.95508
0.96484
0.91992
0.93945
0.94922
0.96484
0.94922
0.98438
0.97461
0.98047
0.97461
0.98047
0.96875
0.98438
0.96484
0.94531
0.92969
0.90039
0.87891
0.86523
0.85547
0.84961
0.85938
0.85938
0.85938
0.83398
0.83984
0.83008
0.84961
0.85938
0.875
0.85547
0.86523
0.86914
0.85547
0.84961
0.86523
0.86914
0.85547
0.85547
0.85938
0.85938
0.86914
0.86914
0.875
0.87891
0.89453
0.91992
0.91016
0.90039
0.9043
0.86523
0.85938
0.9043
0.875
0.875
0.85938
0.87891
0.875
0.88477
0.89453
0.88867
0.92969
0.97461
0.58984
0.20508
0.11133
0.20508
0.3457
0.58008
0.75391
0.85938
0.93945
0.98047
0.99414
1
1.0137
1.0098
1.0449
1.0391
1.0547
1.0195
1.0293
1
0.99414
1.0039
1.0137
0.99023
0.99023
0.98438
0.99023
1.0039
1.0391
1.0254
1.0039
1.0137
1.0488
1.0391
1.0137
1.0352
1.0195
1.0293
0.98438
0.98047
0.94531
0.92969
0.88477
0.88867
0.88477
0.875
0.88477
0.88867
0.86914
0.85938
0.85547
0.86914
0.86523
0.875
0.88867
0.9043
0.91992
0.93555
0.94531
0.91016
0.88477
0.88867
0.89453
0.9043
0.91016
0.90039
0.91406
0.91406
0.92383
0.91992
0.93945
0.91016
0.90039
0.91016
0.90039
0.86914
0.85547
0.875
0.90039
0.875
0.86914
0.84961
0.86914
0.875
0.84961
0.85547
0.84961
0.91016
0.91406
0.38477
0.044922
0.03125
0.15625
0.37109
0.55469
0.73047
0.85938
0.93945
0.99023
1.0137
0.99414
0.99023
0.99414
1.0098
1.0039
0.99414
1.0137
1
0.96875
1.0039
1.0137
0.99023
0.99023
0.99414
1.0195
1.0195
1.0195
1.0137
1.0352
1.0391
1.0586
1.0391
1.0449
1.0391
1.0645
1.0547
1.0449
1.0195
1.0098
0.98438
0.96875
0.91406
0.9043
0.88477
0.86914
0.86523
0.875
0.88867
0.88867
0.875
0.88867
0.90039
0.88477
0.875
0.85547
0.86914
0.86914
0.88477
0.89453
0.9043
0.88867
0.91406
0.90039
0.86523
0.85938
0.88477
0.875
0.87891
0.88867
0.875
0.875
0.875
0.87891
0.90039
0.91016
0.86914
0.84961
0.84961
0.85938
0.86914
0.83984
0.82031
0.82422
0.82422
0.83008
0.83008
0.84961
0.83984
0.92383
0.7793
0.30078
-0.019531
-0.025391
0.080078
0.30469
0.53516
0.70898
0.85547
0.91406
0.95508
0.96484
0.95508
0.94922
0.94922
0.96484
0.97461
0.96875
0.96875
0.98047
0.99023
0.95508
0.95898
0.94531
0.96875
0.96875
0.96875
0.96875
0.99414
1.0039
0.97461
0.97461
1
1.0039
1.0352
1.0391
0.99023
1.0039
0.97461
0.96875
0.94531
0.92969
0.92383
0.88477
0.85547
0.85938
0.84375
0.83398
0.82422
0.83008
0.82422
0.81445
0.82422
0.82422
0.82422
0.83984
0.83398
0.85547
0.85938
0.83398
0.83008
0.82422
0.84375
0.84961
0.85938
0.82422
0.82422
0.83008
0.83984
0.82422
0.83984
0.83984
0.85938
0.875
0.85547
0.84961
0.85547
0.83008
0.80469
0.82422
0.83398
0.83984
0.80469
0.82031
0.82031
0.83398
0.83008
0.83984
0.83008
0.91406
0.94531
0.43555
0.099609
0.054688
0.14063
0.32422
0.55078
0.70898
0.81055
0.89453
0.91992
0.95898
0.98438
0.95898
0.96875
0.98438
0.95508
0.94922
0.95898
0.97461
0.96484
0.96484
0.96875
0.96484
0.93945
0.93945
0.94531
0.95508
0.96484
0.94922
0.96875
1.0039
1.0293
1.0098
1
0.99023
1.0039
0.98438
0.99023
0.97461
0.93555
0.91406
0.91016
0.90039
0.88867
0.87891
0.89453
0.87891
0.84961
0.85938
0.86523
0.84375
0.83398
0.87891
0.88867
0.84961
0.83984
0.88477
0.875
0.88477
0.86914
0.875
0.88477
0.86914
0.88477
0.875
0.86523
0.87891
0.875
0.86523
0.88477
0.88867
0.87891
0.89453
0.91406
0.90039
0.87891
0.84375
0.86914
0.875
0.86523
0.84961
0.85938
0.86523
0.875
0.86914
0.87891
0.88867
0.875
0.96484
0.64453
0.22461
0.089844
0.16016
0.2793
0.49414
0.66992
0.80469
0.91992
0.96875
0.96875
0.96875
0.97461
0.99414
1
0.99023
1.0039
1
0.98047
0.98438
0.96875
0.97461
0.98047
0.99023
0.99414
1.0039
1.0137
1.0254
1.0039
0.98047
0.99023
1.0098
1.0195
1.0352
1.0488
1.0449
1.0195
1.0352
1.0098
0.98438
0.96484
0.92969
0.92383
0.90039
0.91406
0.90039
0.88867
0.85938
0.84961
0.84375
0.84961
0.84961
0.86914
0.88867
0.86914
0.85938
0.87891
0.88867
0.875
0.875
0.86914
0.875
0.89453
0.91992
0.90039
0.875
0.875
0.90039
0.88477
0.875
0.875
0.91016
0.91992
0.90039
0.875
0.86914
0.83984
0.85938
0.875
0.875
0.86914
0.875
0.85547
0.85547
0.85547
0.85938
0.85547
0.90039
0.92383
0.48438
0.13086
0.064453
0.13086
0.31055
0.54492
0.68555
0.83398
0.91992
0.98047
0.99414
0.99023
0.97461
0.99023
1
1.0137
1.0195
0.99023
0.98438
1
1.0137
1.0254
1
0.97461
0.99414
1.0039
1.0137
1
1.0137
1.0293
1.0391
1.0293
1.0547
1.0449
1.0391
1.0449
1.0547
1.0586
1.0137
1.0098
0.98047
0.93945
0.91992
0.9043
0.90039
0.90039
0.89453
0.90039
0.87891
0.85938
0.85547
0.86914
0.86914
0.89453
0.91016
0.87891
0.86523
0.88477
0.86914
0.86914
0.86914
0.88867
0.88867
0.87891
0.88867
0.875
0.875
0.88477
0.875
0.86914
0.86914
0.875
0.88867
0.91406
0.94531
0.90039
0.87891
0.84375
0.84961
0.84375
0.85547
0.86523
0.87891
0.84961
0.86523
0.84961
0.85547
0.84961
0.84375
0.94922
0.73438
0.24609
0
0.044922
0.16992
0.41016
0.60938
0.76563
0.89453
0.95508
0.96875
0.98438
1
1.0254
1.0098
0.99414
1
0.99023
0.98438
1.0137
0.98438
0.97461
0.98438
1
0.99023
0.99023
1
1.0254
0.97461
0.95898
0.99023
1.0039
1.0137
1.0039
1.0391
1.0352
1.0449
1.0547
1.0098
0.96484
0.94922
0.92969
0.91016
0.90039
0.9043
0.88867
0.86914
0.85938
0.86523
0.83398
0.85938
0.875
0.86914
0.84961
0.86914
0.875
0.85547
0.875
0.875
0.875
0.87891
0.88867
0.85938
0.86914
0.86523
0.85547
0.85938
0.875
0.87891
0.88867
0.85547
0.84961
0.875
0.88477
0.88867
0.89453
0.87891
0.875
0.84375
0.83398
0.84375
0.83984
0.84375
0.83984
0.85938
0.87891
0.90039
0.84961
0.85547
0.91016
0.93555
0.42578
0.11133
0.060547
0.17578
0.39453
0.56445
0.71484
0.83984
0.9043
0.95508
0.98438
0.99023
0.97461
0.96875
0.98047
0.99023
1.0039
0.99414
0.97461
0.96875
1
1.0137
0.96484
0.94922
0.96484
0.96875
0.98047
0.99023
0.97461
0.96875
1.0039
0.99414
1.0137
1.0137
1.0137
1.0254
1
0.96875
0.97461
0.95898
0.94531
0.91992
0.91406
0.91992
0.86914
0.86523
0.84961
0.86914
0.875
0.875
0.86914
0.84375
0.84375
0.85938
0.86523
0.86914
0.875
0.90039
0.89453
0.875
0.85938
0.89453
0.86914
0.86523
0.87891
0.89453
0.88477
0.875
0.88867
0.90039
0.88477
0.875
0.9043
0.91992
0.91016
0.88477
0.87891
0.875
0.88477
0.875
0.88867
0.86523
0.88477
0.875
0.86914
0.85938
0.86914
0.91406
0.99023
0.64453
0.24609
0.099609
0.15039
0.27539
0.5
0.69922
0.82422
0.92969
0.98438
0.99414
1.0039
0.99414
1.0039
1.0098
1.0039
1.0195
1.0254
1.0391
1
0.99414
0.97461
0.96484
0.98047
0.96875
0.99023
1.0195
1.0391
0.99414
1.0137
1.0195
1.0098
1.0137
1.0391
1.0352
1.0586
1.0547
1.0195
1.0039
0.99414
0.96875
0.95898
0.93555
0.91992
0.89453
0.88867
0.86914
0.875
0.86523
0.85938
0.87891
0.875
0.88867
0.875
0.88867
0.85547
0.88867
0.875
0.875
0.88477
0.90039
0.875
0.89453
0.91016
0.87891
0.86523
0.85938
0.88477
0.88867
0.88477
0.9043
0.90039
0.90039
0.91992
0.93945
0.88867
0.85938
0.85938
0.87891
0.88867
0.88477
0.88477
0.875
0.86914
0.87891
0.9043
0.88867
0.88477
0.92969
0.68945
0.23438
0.054688
0.125
0.24023
0.4707
0.66016
0.78906
0.88867
0.94531
0.99414
1.0254
1.0293
1.0137
1.0098
1.0352
1.0137
0.98438
0.96875
1
1.0195
1.0391
1.0137
1.0391
1.0488
1.0293
1.0254
1.0391
1.0137
1.0391
1.0586
1.0449
1.0352
1.0645
1.084
1.0547
1.0449
1.0449
1.0547
1.0254
0.98047
0.95508
0.93945
0.93945
0.91992
0.87891
0.88477
0.87891
0.91992
0.875
0.88477
0.9043
0.91406
0.89453
0.88867
0.87891
0.89453
0.91992
0.92383
0.88477
0.91016
0.89453
0.87891
0.88867
0.90039
0.88867
0.875
0.9043
0.90039
0.90039
0.91016
0.91406
0.88477
0.9043
0.91992
0.91992
0.92383
0.89453
0.86914
0.89453
0.91016
0.86523
0.84961
0.85547
0.85938
0.875
0.87891
0.88867
0.86523
0.91016
0.93555
0.34961
0.015625
-0.0039063
0.13477
0.33984
0.56445
0.74023
0.875
0.94922
1
0.99414
1.0137
1.0352
1.0391
1.0254
1.0137
1.0137
1.0293
1.0195
1.0137
1.0195
1.0352
0.99414
1.0098
1.0137
1.0039
1.0254
1.0137
1.0254
1.0195
1.0293
1.0195
1.0254
1.0137
1.0547
1.0703
1.0449
0.98438
0.97461
0.96875
0.96484
0.93945
0.91406
0.91992
0.91406
0.88477
0.89453
0.85938
0.85547
0.86523
0.87891
0.88477
0.875
0.85938
0.86914
0.88867
0.875
0.88477
0.86914
0.88867
0.89453
0.875
0.88477
0.89453
0.86523
0.86914
0.86914
0.88477
0.89453
0.875
0.875
0.875
0.91406
0.93555
0.90039
0.88867
0.9043
0.86523
0.84961
0.875
0.86914
0.85547
0.87891
0.84961
0.84375
0.83984
0.85547
0.85938
0.88867
0.93555
0.65039
0.24609
0.070313
0.099609
0.24023
0.45508
0.64063
0.79883
0.91016
0.95508
0.98438
0.99023
1
1.0137
0.99414
1
0.99023
0.99414
1.0039
1.0098
0.99023
0.99023
0.98438
0.97461
0.99414
1.0137
0.99023
0.96484
0.97461
0.99023
1.0098
1.0391
1.0137
1.0352
1.0391
1.0039
1
1.0137
1.0039
0.99023
0.96484
0.93555
0.94531
0.92383
0.90039
0.875
0.875
0.86914
0.89453
0.88477
0.90039
0.89453
0.88477
0.88867
0.90039
0.875
0.89453
0.91992
0.92383
0.89453
0.87891
0.88477
0.87891
0.90039
0.90039
0.89453
0.89453
0.91016
0.91406
0.90039
0.88477
0.89453
0.90039
0.91992
0.93945
0.91992
0.89453
0.88477
0.875
0.86914
0.875
0.875
0.87891
0.90039
0.9043
0.90039
0.86523
0.875
0.9043
0.95508
0.63477
0.22461
0.11523
0.17969
0.31055
0.51953
0.69531
0.82422
0.91016
0.94922
1.0039
1.0195
1.0391
1.0137
1
1.0254
1.0293
0.99023
1
1.0039
0.99414
1.0098
1.0195
1.0254
0.99023
0.99414
0.99023
0.98438
0.99414
1.0352
1.0391
1.0352
1.0137
1.0449
1.0586
1.0488
1.0547
1.0137
1.0098
1
0.99023
0.96484
0.91992
0.91992
0.9043
0.90039
0.9043
0.88867
0.90039
0.875
0.875
0.87891
0.875
0.88477
0.875
0.88477
0.91406
0.91992
0.91406
0.87891
0.87891
0.89453
0.90039
0.88867
0.90039
0.88867
0.9043
0.91016
0.90039
0.90039
0.89453
0.9043
0.91992
0.93555
0.91016
0.9043
0.86914
0.85938
0.86523
0.88477
0.86914
0.86914
0.875
0.87891
0.84961
0.875
0.86523
0.87891
0.93555
0.75
0.32031
0.076172
0.095703
0.20117
0.43555
0.64063
0.76953
0.88477
0.95898
0.96875
0.99414
0.99023
1.0039
0.99023
0.99023
0.99023
1.0391
1.0254
1.0352
1.0039
1.0195
1.0039
1
1.0098
1.0137
1
1.0195
1.0352
1.0586
1.0488
1.0391
1.0449
1.0391
1.0586
1.0586
1.0586
1.0488
1.0391
1.0039
1
0.96484
0.94531
0.91406
0.91406
0.9043
0.9043
0.90039
0.9043
0.87891
0.88867
0.875
0.89453
0.90039
0.9043
0.89453
0.91992
0.9043
0.88867
0.87891
0.90039
0.9043
0.90039
0.9043
0.89453
0.88867
0.91016
0.92383
0.86523
0.875
0.86523
0.88477
0.90039
0.90039
0.91016
0.92969
0.91016
0.87891
0.83984
0.84961
0.85938
0.85547
0.86523
0.87891
0.91406
0.87891
0.85938
0.83398
0.84375
0.92383
0.70898
0.25
0.015625
0.054688
0.19531
0.44531
0.60547
0.74414
0.88867
0.95898
0.99023
0.97461
0.96875
0.99023
1.0039
1.0098
1.0195
1
0.99414
1.0098
0.99023
1
0.99414
1.0098
0.99414
1.0098
1.0254
1.0137
0.98438
1.0195
1.0137
1.0352
1.0449
1.0645
1.0547
1.0254
1.0137
1.0098
1
0.98047
0.95898
0.96875
0.93945
0.90039
0.90039
0.875
0.86523
0.85938
0.875
0.86914
0.84961
0.86523
0.85547
0.85938
0.86914
0.84961
0.87891
0.88867
0.86914
0.85938
0.88477
0.89453
0.875
0.86523
0.875
0.86914
0.85547
0.86523
0.875
0.875
0.89453
0.91016
0.86523
0.84961
0.875
0.88477
0.875
0.88477
0.86523
0.85547
0.86914
0.89453
0.84375
0.84961
0.83984
0.83398
0.86523
0.85547
0.86914
0.84961
0.88477
0.92969
0.49023
0.11133
0.050781
0.13477
0.29102
0.49414
0.67578
0.81445
0.91016
0.95898
1
1
0.99414
0.97461
0.99414
1
0.98047
0.96875
0.98438
1.0039
1.0039
0.97461
0.98438
0.96875
0.98047
0.99023
0.95898
0.98438
1.0098
1.0137
0.97461
1.0137
1.0098
1.0195
1.0449
1.0293
0.99414
1
0.96875
0.94922
0.94531
0.93555
0.91016
0.91406
0.88867
0.875
0.85938
0.86523
0.85547
0.84961
0.85547
0.87891
0.84961
0.84375
0.875
0.85938
0.85547
0.86914
0.89453
0.91016
0.875
0.84961
0.86914
0.875
0.87891
0.86914
0.875
0.87891
0.875
0.86523
0.875
0.88867
0.89453
0.875
0.90039
0.9043
0.85547
0.83398
0.83008
0.86914
0.85938
0.86914
0.875
0.87891
0.85938
0.875
0.84961
0.85938
0.91992
0.93555
0.41016
0.125
0.099609
0.20117
0.40039
0.5957
0.75391
0.875
0.93555
0.96484
0.98438
1.0098
1.0293
1
1.0039
1
1
0.99414
0.99023
0.98047
0.98438
0.99414
1
0.97461
1
1.0039
0.99023
0.99023
0.99414
1.0254
1.0293
0.99023
1.0039
1.0137
1.0391
1.0488
1.0137
1.0137
0.99023
0.94531
0.92969
0.91992
0.90039
0.88477
0.89453
0.90039
0.86914
0.88477
0.87891
0.89453
0.88477
0.85938
0.85547
0.875
0.87891
0.91016
0.87891
0.88477
0.88867
0.88477
0.89453
0.87891
0.9043
0.90039
0.90039
0.91406
0.91992
0.87891
0.90039
0.90039
0.90039
0.90039
0.9043
0.91992
0.92383
0.86914
0.875
0.87891
0.90039
0.9043
0.88477
0.86523
0.86914
0.88477
0.86914
0.86523
0.875
0.92969
0.94922
0.43945
0.089844
0.070313
0.16016
0.34961
0.57031
0.73047
0.84375
0.93945
0.96875
0.98438
0.99023
1.0039
1.0098
1.0391
1.0137
0.99414
1
1.0039
1.0098
1.0137
0.98438
0.98047
1.0137
1.0391
1.0195
1.0137
1.0391
1.0391
1.0391
1.0547
1.0703
1.0391
1.0488
1.0391
1.0645
1.0645
1.0547
1.0098
1.0039
0.99023
0.95508
0.92969
0.91992
0.9043
0.90039
0.91016
0.88477
0.89453
0.88867
0.9043
0.89453
0.88867
0.91016
0.89453
0.90039
0.89453
0.88867
0.91016
0.90039
0.92383
0.93555
0.93555
0.88867
0.875
0.87891
0.89453
0.87891
0.90039
0.9043
0.92383
0.94531
0.91406
0.88867
0.90039
0.91016
0.84961
0.86523
0.87891
0.89453
0.90039
0.88477
0.84961
0.86914
0.84961
0.85938
0.84961
0.87891
0.92969
0.60938
0.17578
0.041016
0.099609
0.21484
0.42969
0.64063
0.79492
0.91016
0.96875
1
1.0098
0.99023
1.0137
1.0195
1.0137
1.0098
1.0254
1.0098
1.0137
1.0137
1.0039
0.99414
1.0137
1.0137
1.0391
1.0195
1.0137
1.0137
1.0137
1.0352
1.0801
1.0586
1.0547
1.0645
1.0703
1.0293
1.0137
1.0039
0.99414
1.0098
0.95508
0.9043
0.89453
0.90039
0.875
0.87891
0.86523
0.875
0.88477
0.89453
0.85938
0.84961
0.84961
0.85938
0.86523
0.875
0.90039
0.91406
0.88867
0.85938
0.86914
0.85938
0.875
0.85938
0.85547
0.88477
0.89453
0.85547
0.875
0.85547
0.84961
0.84961
0.875
0.87891
0.90039
0.9043
0.875
0.82422
0.82422
0.84961
0.85547
0.82422
0.83984
0.83984
0.83398
0.82422
0.81445
0.83398
0.82422
0.91992
0.62891
0.21484
0.019531
0.050781
0.17969
0.43945
0.63477
0.7793
0.86914
0.91406
0.94922
0.99414
0.97461
0.95898
0.96484
0.96875
0.96875
0.98438
0.97461
0.96484
0.95898
0.95508
0.95898
0.94531
0.95508
0.94531
0.98438
0.99023
0.97461
0.99023
1.0098
0.96875
0.97461
0.99023
1.0098
1.0137
1.0195
0.99023
0.97461
0.95508
0.92969
0.90039
0.89453
0.9043
0.86914
0.84961
0.86914
0.87891
0.83984
0.83398
0.84961
0.84375
0.84961
0.84961
0.85547
0.85938
0.84961
0.86523
0.84961
0.86914
0.88867
0.875
0.86523
0.88867
0.85547
0.85547
0.84961
0.85938
0.86914
0.87891
0.88867
0.86914
0.86523
0.9043
0.91992
0.84961
0.84375
0.83008
0.84961
0.84961
0.85938
0.86914
0.88867
0.86523
0.85938
0.86523
0.86914
0.83398
0.86523
0.91016
0.58984
0.18945
0.070313
0.12109
0.28516
0.52539
0.69922
0.83398
0.9043
0.94922
0.96875
0.98047
1
0.99023
0.98047
0.99414
1.0039
1.0098
0.96875
0.96875
0.98047
0.99414
1.0039
1.0098
1
0.96875
0.96875
1
1.0137
1.0039
0.99414
1.0098
1.0137
1.0293
1.0391
1.0098
1
1.0137
1.0039
0.96875
0.93555
0.89453
0.88867
0.90039
0.91016
0.875
0.87891
0.86914
0.88867
0.90039
0.88477
0.85547
0.86523
0.84961
0.86523
0.87891
0.9043
0.91016
0.89453
0.87891
0.89453
0.91406
0.90039
0.9043
0.88477
0.88867
0.89453
0.91406
0.90039
0.88477
0.86523
0.89453
0.90039
0.875
0.86523
0.875
0.83008
0.84375
0.85938
0.88867
0.86914
0.86523
0.86523
0.88477
0.90039
0.88477
0.86914
0.85547
0.92383
0.59961
0.18555
0.015625
0.064453
0.19531
0.44922
0.625
0.75391
0.85938
0.92383
0.93945
0.94922
0.95508
0.96875
0.99414
1.0137
0.99414
0.98438
0.99414
0.98047
1.0039
1.0195
1.0098
0.99414
1.0098
1.0098
1.0254
1.0449
1.0547
1.0391
1.0586
1.0586
1.0938
1.1035
1.1035
1.0703
1.0742
1.0703
1.0703
1.0449
1.0195
0.97461
0.92969
0.90039
0.88867
0.85938
0.83398
0.84961
0.84375
0.82422
0.84375
0.84961
0.85547
0.875
0.85938
0.88477
0.91406
0.93945
0.91992
0.93945
0.94922
0.96484
0.96484
0.97461
0.94922
0.91406
0.89453
0.86523
0.85547
0.84375
0.83398
0.84961
0.83398
0.82422
0.85547
0.83984
0.78906
0.75391
0.74023
0.73438
0.76563
0.77539
0.76953
0.78516
0.81055
0.82422
0.79492
0.80469
0.80469
0.84375
0.88477
0.48438
0.085938
0.0058594
0.080078
0.25
0.5
0.67969
0.83008
0.91992
0.99023
1.0352
1.0547
1.0801
1.1035
1.1191
1.125
1.1289
1.0254
0.95508
0.94531
0.98438
0.99023
0.96484
0.95508
0.97461
1
1.0352
1.0098
0.97461
0.96875
0.96875
0.97461
0.95898
0.96875
0.94531
0.92969
0.91992
0.91406
0.86914
0.83008
0.79883
0.78516
0.77539
0.75977
0.73047
0.71484
0.70898
0.73438
0.76563
0.75
0.74414
0.76563
0.79492
0.82422
0.83984
0.83398
0.82422
0.83398
0.85938
0.875
0.86523
0.85547
0.875
0.87891
0.90039
0.87891
0.89453
0.90039
0.91406
0.92969
0.95508
0.93555
0.95508
0.93945
0.92969
0.9043
0.88477
0.83398
0.83008
0.88867
0.9043
0.88477
0.83984
0.85547
0.85938
0.9043
0.93945
0.94922
0.875
0.91992
0.69922
0.32422
0.099609
0.13086
0.20508
0.39063
0.57422
0.74414
0.84961
0.91016
0.92969
0.92383
0.93555
0.91992
0.91406
0.93555
0.92383
0.91992
0.94531
0.94922
0.95898
0.94922
0.92383
0.91406
0.94531
0.91992
0.89453
0.90039
0.91992
0.92383
0.93945
0.94922
0.93945
0.95508
0.96484
0.98047
1
0.94531
0.92969
0.88867
0.87891
0.88867
0.86914
0.84375
0.83398
0.81445
0.82031
0.80469
0.75391
0.75391
0.75391
0.77539
0.7793
0.79492
0.76563
0.7793
0.78516
0.79492
0.7793
0.76563
0.75977
0.7793
0.78906
0.79492
0.77539
0.78516
0.79883
0.81055
0.82031
0.81055
0.83008
0.83398
0.85938
0.88477
0.86914
0.85547
0.86523
0.84375
0.86914
0.875
0.85547
0.86523
0.85938
0.88477
0.86914
0.86523
0.90039
0.86914
0.92383
0.96484
0.53906
0.16016
0.099609
0.21094
0.38477
0.58984
0.75977
0.9043
0.99023
1.0449
1.0586
1.0703
1.0645
1.0742
1.084
1.0996
1.0801
1.0898
1.0703
1.0586
1.0703
1.0391
1.0254
1.0195
1.0293
1.0137
1.0137
1.0137
1.0195
1.0352
1.0391
1.0352
1.0586
1.0488
1.0195
1.0137
1.0293
0.99023
0.98047
0.95508
0.93945
0.91992
0.91992
0.89453
0.88477
0.88867
0.86523
0.86914
0.83398
0.84375
0.85547
0.83008
0.82422
0.84961
0.85938
0.875
0.86914
0.87891
0.85938
0.86914
0.90039
0.88477
0.84375
0.84961
0.84375
0.85547
0.86523
0.82422
0.83398
0.83984
0.84961
0.87891
0.88867
0.90039
0.88867
0.875
0.86523
0.875
0.86914
0.89453
0.91016
0.9043
0.91992
0.92383
0.93555
0.96484
0.96875
0.96484
1.0488
0.61523
0.21094
0.13477
0.22461
0.38086
0.58984
0.78516
0.92969
1.0137
1.0938
1.1289
1.1094
1.1035
1.1094
1.1152
1.0996
1.1035
1.084
1.0586
1.0488
1.0645
1.0449
1.0137
1.0039
0.99414
0.97461
0.95898
0.92969
0.91406
0.89453
0.86523
0.77539
0.74023
0.67578
0.5957
0.48047
0.34961
0.23438
0.20508
0.15625
0.11523
0.13477
0.15625
0.14453
0.14063
0.18555
0.23438
0.31055
0.39063
0.47461
0.58008
0.71484
0.85547
0.95508
1.0352
1.1035
1.0488
0.96484
0.95508
1.0254
1.0488
1.0645
1.0703
1.0996
1.125
1.0996
1.1387
1.1445
1.1543
1.1484
1.1738
1.1543
1.1484
1.1797
1.1602
1.1387
1.1543
1.1094
1.0801
1.0645
1.0645
1.0449
1.0488
1.0254
1.0293
1.0137
1.0098
1.0293
1
0.96875
1.0449
0.875
0.44531
0.14063
0.125
0.25
0.47461
0.67969
0.82422
0.96484
1.0137
1.0547
1.0703
1.084
1.0801
1.1191
1.0898
1.0742
1.0645
1.0449
1.0352
1.0449
1.0449
1.0586
1.0801
1.0703
1.084
1.0254
1.0391
1.0547
1.0449
1.0391
1.0547
1.0742
1.1035
1.084
1.0898
1.0742
1.0586
1.0547
1.0586
1.0098
0.97461
0.93945
0.92383
0.91016
0.90039
0.9043
0.91406
0.89453
0.87891
0.88867
0.86914
0.86914
0.86523
0.87891
0.88867
0.90039
0.88867
0.90039
0.89453
0.87891
0.89453
0.90039
0.86914
0.86523
0.86523
0.875
0.89453
0.9043
0.87891
0.85938
0.87891
0.875
0.9043
0.88867
0.875
0.86914
0.84961
0.86523
0.86914
0.83984
0.83398
0.83984
0.85938
0.86523
0.85547
0.83398
0.86523
0.86914
0.92969
0.75391
0.35547
0.054688
0.044922
0.15625
0.38086
0.56445
0.74023
0.875
0.93555
0.92969
0.95508
0.94531
0.94531
0.94922
0.95898
0.97461
0.96875
0.96484
0.95508
0.96484
0.97461
0.98438
0.96875
0.93945
0.92383
0.94531
0.96484
0.96875
0.96484
0.98047
0.99414
1.0293
1.0547
1.0449
0.98438
0.97461
0.98438
0.96875
0.96484
0.94531
0.92969
0.91992
0.92383
0.875
0.875
0.84961
0.83008
0.82422
0.84375
0.83984
0.85938
0.875
0.84961
0.83008
0.84375
0.85547
0.86523
0.84961
0.84961
0.85938
0.85547
0.87891
0.90039
0.87891
0.84961
0.84961
0.84375
0.85938
0.85547
0.86914
0.87891
0.88867
0.88477
0.92969
0.88867
0.86914
0.83008
0.84375
0.83984
0.83398
0.84375
0.85547
0.86914
0.85547
0.84961
0.85938
0.875
0.84375
0.91992
0.60547
0.18945
0.064453
0.125
0.23438
0.4707
0.64453
0.80469
0.90039
0.94922
0.96484
0.99023
0.99023
1
0.98047
0.99414
0.99023
0.98438
0.96875
0.96484
0.99414
0.99023
0.98438
0.96484
0.98047
0.97461
0.96875
0.96875
0.98047
1
1.0254
1.0137
1.0352
1.0488
1.0586
0.99414
0.99023
1.0039
0.99023
0.97461
0.95898
0.93555
0.91992
0.91992
0.92383
0.87891
0.86523
0.84961
0.84961
0.86914
0.85547
0.86523
0.85938
0.91016
0.91406
0.91992
0.86523
0.875
0.88867
0.90039
0.88867
0.91016
0.91992
0.89453
0.88477
0.90039
0.89453
0.91992
0.90039
0.89453
0.90039
0.91016
0.91992
0.93555
0.93945
0.89453
0.86914
0.85938
0.90039
0.87891
0.86914
0.85547
0.86914
0.875
0.85938
0.875
0.88477
0.86523
0.91016
0.92383
0.4043
0.054688
0.025391
0.13477
0.32422
0.55078
0.7207
0.85547
0.93555
0.99023
1.0195
1.0391
1.0195
1.0254
1.0098
1.0039
1.0195
1.0098
1.0039
1.0352
1.0195
1.0098
1.0137
1.0391
1.0195
1.0254
1.0137
1.0137
1.0137
1.0293
1.0449
1.0586
1.0742
1.0801
1.0586
1.0547
1.0586
1.0254
1.0098
0.99023
0.96875
0.94531
0.93945
0.93555
0.90039
0.89453
0.91016
0.86523
0.84961
0.84961
0.86523
0.875
0.9043
0.87891
0.875
0.875
0.875
0.90039
0.90039
0.91016
0.90039
0.90039
0.88477
0.87891
0.875
0.90039
0.88477
0.88477
0.88477
0.89453
0.88477
0.87891
0.875
0.90039
0.88867
0.90039
0.90039
0.90039
0.875
0.86523
0.84961
0.85938
0.86523
0.84961
0.84961
0.85938
0.86914
0.85547
0.875
0.86523
0.93555
0.72461
0.28516
0.015625
0.050781
0.16992
0.41602
0.61914
0.75391
0.86914
0.94922
0.95898
0.97461
1
1.0098
0.99023
0.99023
0.99023
0.99414
1
0.98047
0.95898
0.98438
0.99023
0.95898
0.95508
0.95508
0.96875
0.98047
1.0137
0.99414
0.98047
0.99023
1.0039
1.0098
1.0391
1.0488
1.0293
1.0098
0.99023
0.94531
0.93555
0.93945
0.90039
0.90039
0.88477
0.87891
0.88477
0.88867
0.82422
0.83984
0.83984
0.84961
0.84961
0.85547
0.87891
0.90039
0.85938
0.85547
0.875
0.85938
0.875
0.86914
0.86523
0.875
0.88477
0.85547
0.85938
0.87891
0.88867
0.85938
0.86523
0.85938
0.88477
0.91992
0.93555
0.87891
0.875
0.85938
0.83008
0.82422
0.875
0.84961
0.85938
0.875
0.875
0.875
0.84961
0.83984
0.84375
0.9043
0.93945
0.54492
0.15625
0.060547
0.13086
0.32422
0.54492
0.69922
0.83398
0.91406
0.94922
0.96875
0.95508
0.96875
0.97461
0.99023
0.97461
0.99023
1.0039
1
0.99023
0.98047
0.95898
0.95508
0.96875
0.95898
0.97461
0.98438
0.99023
1.0098
0.99023
1.0195
1.0449
1.0254
1.0254
1.0039
1.0098
1.0254
1.0098
0.95898
0.95508
0.94531
0.92969
0.91406
0.90039
0.88867
0.875
0.85547
0.875
0.88477
0.85547
0.84961
0.85938
0.84961
0.85938
0.88867
0.89453
0.86914
0.84961
0.88477
0.86914
0.86914
0.86523
0.875
0.88477
0.89453
0.87891
0.88477
0.86914
0.875
0.87891
0.86523
0.85938
0.86914
0.88867
0.91992
0.90039
0.86523
0.83008
0.83398
0.85938
0.84961
0.85938
0.86523
0.85547
0.86523
0.875
0.84961
0.84375
0.90039
0.92383
0.44922
0.099609
0.044922
0.12109
0.29492
0.52539
0.69922
0.83398
0.89453
0.93555
0.94531
0.94922
0.95508
0.96484
0.98047
0.96875
0.98438
0.99023
0.96875
0.96484
0.99023
0.95508
0.94922
0.96875
0.96484
0.96875
1.0039
0.98438
0.99414
1.0137
1.0254
1.0195
1.0293
1.0391
1.0352
1.0586
1.0352
1.0254
1.0098
0.98438
0.95898
0.93945
0.91406
0.91992
0.89453
0.90039
0.86914
0.88477
0.88867
0.86914
0.84961
0.875
0.87891
0.89453
0.875
0.86914
0.88477
0.9043
0.90039
0.87891
0.87891
0.89453
0.90039
0.90039
0.89453
0.875
0.88477
0.9043
0.91016
0.86914
0.88477
0.90039
0.90039
0.90039
0.93555
0.90039
0.88477
0.875
0.88867
0.85938
0.85938
0.84961
0.85938
0.86914
0.85938
0.86523
0.85938
0.875
0.91406
0.95898
0.52539
0.12109
0.025391
0.10547
0.24609
0.48047
0.66406
0.82031
0.91992
1
1.0293
1.0293
1.0352
1.0098
1.0137
1.0039
1.0137
1.0195
1.0098
1.0137
1.0195
1.0254
1.0391
1.0488
1.0352
0.99414
1.0098
1.0137
1.0391
1.0449
1.0488
1.0547
1.0742
1.084
1.0742
1.084
1.0449
1.0254
1.0293
1.0098
1.0039
0.98047
0.95898
0.91992
0.9043
0.90039
0.91016
0.91992
0.875
0.88867
0.89453
0.875
0.875
0.89453
0.87891
0.88867
0.88477
0.88867
0.91406
0.91992
0.9043
0.88477
0.88867
0.9043
0.89453
0.90039
0.90039
0.9043
0.90039
0.9043
0.88867
0.88477
0.875
0.91016
0.92383
0.90039
0.90039
0.9043
0.91406
0.87891
0.86523
0.86914
0.875
0.88477
0.89453
0.86914
0.86523
0.85547
0.90039
0.875
0.85547
0.94531
0.69531
0.25977
0.060547
0.10547
0.2207
0.44531
0.64063
0.80469
0.91016
0.96875
0.98047
0.99414
1
1.0293
1.0254
1.0098
1
1.0098
0.99023
1.0254
1.0137
0.99414
1.0039
0.99414
0.98438
1
0.99414
1.0098
1.0293
1.0254
1.0195
1.0391
1.0449
1.0254
1.0352
1.0352
1.0391
1.0352
1.0391
1.0195
0.97461
0.95898
0.94531
0.93555
0.91992
0.90039
0.89453
0.90039
0.91992
0.88477
0.86914
0.86914
0.88477
0.89453
0.9043
0.90039
0.9043
0.89453
0.88477
0.90039
0.875
0.88477
0.9043
0.92383
0.91992
0.89453
0.87891
0.88477
0.88867
0.89453
0.87891
0.91992
0.93555
0.875
0.875
0.88477
0.85547
0.83008
0.82422
0.84375
0.86914
0.85547
0.86914
0.87891
0.86914
0.86914
0.88477
0.88477
0.91016
0.99414
0.76563
0.32422
0.089844
0.12109
0.23047
0.43555
0.64063
0.80469
0.91016
0.94531
1.0098
1.0137
1.0137
0.99023
1.0098
1.0098
1.0098
1.0137
1.0039
0.99414
1
1.0098
1.0039
1.0137
0.99023
0.98047
1
1.0137
0.99023
1.0098
1.0137
1.0195
1.0293
1.0547
1.0586
1.0586
1.0547
1.0098
0.99023
0.98438
0.95898
0.94531
0.93945
0.93555
0.90039
0.91016
0.91406
0.89453
0.87891
0.875
0.875
0.85547
0.85938
0.86914
0.90039
0.91016
0.87891
0.85547
0.86914
0.85547
0.86523
0.875
0.89453
0.88867
0.875
0.86523
0.85547
0.875
0.86914
0.85938
0.86914
0.88867
0.875
0.90039
0.91406
0.87891
0.86914
0.84961
0.84961
0.84961
0.83984
0.84961
0.85938
0.85938
0.84961
0.85547
0.84961
0.84375
0.88867
0.91992
0.53906
0.13477
0.035156
0.13477
0.30078
0.46094
0.65039
0.80469
0.9043
0.94531
0.98047
0.97461
0.99414
0.99023
1.0098
1.0039
1
0.99414
1.0137
0.99414
1.0039
0.99023
0.99023
1
1
0.97461
0.96875
0.99023
0.98047
0.99414
1.0195
1.0391
1.0586
1.0742
1.0547
1.0449
1.0391
1.0293
1
0.98438
0.97461
0.93945
0.92383
0.92383
0.91016
0.91406
0.90039
0.90039
0.86523
0.84961
0.84961
0.875
0.88867
0.91016
0.91406
0.875
0.89453
0.9043
0.90039
0.87891
0.875
0.87891
0.88477
0.90039
0.91016
0.86523
0.87891
0.875
0.87891
0.875
0.88867
0.9043
0.91406
0.91992
0.91992
0.91406
0.91992
0.84961
0.83984
0.86523
0.87891
0.88477
0.86523
0.875
0.85547
0.84961
0.86914
0.875
0.84375
0.91016
0.68555
0.23438
0.041016
0.095703
0.15625
0.39453
0.60938
0.76953
0.90039
0.97461
0.99414
0.99023
1.0039
1.0098
1.0137
1.0293
1.0352
1.0195
1.0254
0.99023
1.0195
1.0098
1.0039
1.0254
1.0195
1.0293
1.0254
1.0352
1.0254
1.0391
1.0547
1.0449
1.0645
1.0645
1.0742
1.0703
1.084
1.0742
1.0449
1
0.99023
0.96484
0.93555
0.93945
0.91992
0.9043
0.91406
0.91016
0.91406
0.875
0.87891
0.88867
0.88477
0.88867
0.88477
0.90039
0.9043
0.91406
0.89453
0.87891
0.875
0.88867
0.90039
0.9043
0.89453
0.88867
0.89453
0.86523
0.88477
0.88477
0.875
0.86914
0.87891
0.9043
0.89453
0.87891
0.91992
0.91016
0.89453
0.85938
0.85547
0.86914
0.89453
0.90039
0.86914
0.85547
0.85547
0.84961
0.84961
0.85547
0.875
0.87891
0.93945
0.69531
0.26953
0.050781
0.085938
0.20117
0.41992
0.61914
0.76563
0.86914
0.91406
0.96875
0.98047
0.98438
1
1.0098
1.0293
1.0352
1.0098
0.99414
0.96875
0.96484
0.96875
0.96875
0.97461
0.99023
0.99414
0.98047
0.99023
0.94922
0.97461
0.98047
1
1.0039
1.0352
1.0391
1.0488
1.0098
1.0039
1.0137
0.99023
0.94922
0.92969
0.93555
0.92383
0.88477
0.89453
0.875
0.84375
0.84961
0.87891
0.88477
0.86914
0.84961
0.85547
0.84961
0.85938
0.88477
0.86914
0.85938
0.88477
0.9043
0.88477
0.90039
0.875
0.86914
0.875
0.88477
0.86914
0.86523
0.88867
0.88477
0.88477
0.88867
0.90039
0.91016
0.90039
0.88477
0.86914
0.83398
0.84961
0.85547
0.84961
0.83008
0.84375
0.85938
0.85938
0.84375
0.83398
0.85938
0.93555
0.73438
0.33008
0.035156
0.070313
0.17969
0.41602
0.60547
0.78516
0.87891
0.92383
0.95508
0.94922
0.95898
0.96484
0.97461
0.96875
0.99023
0.99414
0.98438
0.95508
0.94531
0.95508
0.97461
0.94922
0.96875
0.95898
0.94922
0.97461
0.99023
0.99023
1.0039
0.99023
0.98438
1
1.0195
1.0137
1.0098
1.0137
0.96875
0.96484
0.93555
0.93945
0.89453
0.86914
0.84961
0.85938
0.84375
0.84375
0.83398
0.86523
0.86914
0.84375
0.83398
0.84375
0.84961
0.84375
0.82422
0.84375
0.84961
0.85938
0.875
0.875
0.86914
0.84961
0.87891
0.86914
0.86523
0.86914
0.85547
0.85547
0.86914
0.86523
0.86914
0.875
0.89453
0.90039
0.89453
0.90039
0.86523
0.84375
0.86523
0.84375
0.83008
0.83984
0.85938
0.84375
0.85938
0.86914
0.84961
0.89453
0.91992
0.46094
0.076172
0.03125
0.11133
0.30078
0.5
0.67578
0.80469
0.92969
0.96484
0.96875
0.96484
0.96875
0.96875
0.98047
0.98438
0.98438
0.96875
0.97461
0.99414
0.99414
1
0.98047
0.97461
0.94922
0.96875
0.95508
0.97461
0.97461
1
1.0137
1.0254
1.0098
1.0254
1.0391
1.0352
1.0195
0.99414
0.96875
0.95898
0.94531
0.91992
0.91016
0.89453
0.86914
0.85547
0.875
0.85547
0.87891
0.84961
0.85547
0.84961
0.89453
0.875
0.87891
0.83398
0.86914
0.85938
0.875
0.86914
0.875
0.85547
0.86914
0.88867
0.85938
0.84961
0.86523
0.85547
0.875
0.87891
0.85938
0.91016
0.90039
0.87891
0.875
0.89453
0.85547
0.84961
0.84961
0.85547
0.86914
0.87891
0.85547
0.85938
0.84961
0.86914
0.86523
0.84375
0.83008
0.90039
0.9043
0.33594
0.03125
0.019531
0.13477
0.33008
0.55078
0.7207
0.86523
0.91992
0.94922
0.96484
0.99414
0.99023
0.99414
1.0039
0.99414
0.99023
1.0195
1.0293
1.0195
0.99414
0.98047
0.98438
0.96875
0.98047
1
1.0137
1.0137
1.0293
1.0352
1.0449
1.0547
1.0391
1.0137
1.0352
1.0488
1.0547
1.0137
1.0137
0.98438
0.96875
0.94531
0.92383
0.90039
0.88867
0.85938
0.875
0.875
0.875
0.86914
0.85547
0.85938
0.875
0.88867
0.86914
0.875
0.88477
0.90039
0.90039
0.88477
0.875
0.88477
0.86523
0.86914
0.875
0.89453
0.88477
0.875
0.86523
0.875
0.86523
0.86523
0.86914
0.875
0.875
0.9043
0.91992
0.90039
0.86914
0.84375
0.84961
0.84961
0.86914
0.86523
0.85938
0.85938
0.85547
0.84961
0.85547
0.85938
0.84961
0.91016
0.94531
0.46094
0.095703
0.041016
0.11133
0.30078
0.55469
0.72461
0.84961
0.91406
0.95508
0.99023
1.0039
0.99414
0.99023
1.0137
0.99023
0.98438
0.99414
1.0098
0.96875
0.99023
0.99414
1
0.96484
0.97461
0.96875
0.97461
0.98047
1
1.0195
1.0391
1.0352
1.0391
1
1.0137
1.0195
1.0137
1.0098
0.99023
1
0.95508
0.93555
0.91016
0.88477
0.875
0.90039
0.89453
0.90039
0.86914
0.84961
0.84961
0.875
0.88477
0.86523
0.85938
0.87891
0.90039
0.90039
0.89453
0.88477
0.89453
0.875
0.86914
0.875
0.88867
0.85547
0.84961
0.86914
0.88867
0.875
0.875
0.89453
0.92969
0.87891
0.88867
0.875
0.88477
0.83984
0.84961
0.86914
0.86523
0.84961
0.86523
0.88477
0.875
0.86523
0.85938
0.84961
0.89453
0.93555
0.60938
0.19531
0.060547
0.125
0.26953
0.48047
0.64453
0.80469
0.88867
0.93945
0.96875
0.99414
0.97461
0.99414
1.0039
1.0098
0.98047
0.99414
1
0.99023
0.97461
0.95898
0.98438
0.96875
0.96875
0.98047
0.99023
0.96875
0.99023
1.0098
1.0195
1.0293
1.0391
1.0137
1.0195
1.0254
1.0391
0.99414
0.97461
0.95898
0.94531
0.93945
0.90039
0.875
0.87891
0.875
0.86523
0.86914
0.875
0.88867
0.87891
0.83984
0.83398
0.85938
0.84961
0.86523
0.86914
0.87891
0.86523
0.875
0.875
0.89453
0.87891
0.85938
0.875
0.875
0.86914
0.88477
0.87891
0.88867
0.84961
0.86914
0.87891
0.875
0.91016
0.90039
0.87891
0.85938
0.875
0.87891
0.88477
0.84961
0.84961
0.86914
0.88477
0.84961
0.84961
0.84375
0.87891
0.91016
0.53516
0.11523
0.03125
0.125
0.2793
0.49414
0.67578
0.82422
0.91016
0.95508
0.99023
1.0098
0.99414
1.0098
1.0039
1.0137
0.99414
1.0039
1
0.98438
0.98047
0.99414
1.0039
0.99414
0.99023
1.0137
1.0137
1.0254
1.0293
1.0352
1.0391
1.0801
1.084
1.0391
1.0547
1.0742
1.0547
1.0293
1.0098
1.0098
0.99023
0.96484
0.98438
0.96484
0.9043
0.89453
0.90039
0.88477
0.88477
0.875
0.86914
0.87891
0.9043
0.91406
0.88477
0.875
0.86914
0.87891
0.88867
0.89453
0.88867
0.88477
0.90039
0.91992
0.90039
0.86914
0.85938
0.87891
0.86914
0.875
0.85547
0.88867
0.90039
0.89453
0.90039
0.91016
0.88867
0.86914
0.84961
0.87891
0.88477
0.86523
0.86914
0.84961
0.86914
0.86523
0.86523
0.85938
0.875
0.92969
0.94922
0.375
0.044922
0.0058594
0.11523
0.33008
0.58008
0.74414
0.87891
0.93945
0.98438
1.0039
1.0488
1.0547
1.0137
1.0039
0.99414
0.99023
1.0137
1.0098
1.0039
1.0137
1.0039
1.0449
1.0547
1.0254
1.0039
1.0137
1.0195
1.0488
1.0391
1.0547
1.0488
1.0742
1.0586
1.0801
1.084
1.0391
1.0254
1.0137
0.98438
0.96484
0.95508
0.93945
0.91406
0.89453
0.88867
0.85938
0.875
0.86914
0.875
0.85938
0.87891
0.875
0.86914
0.85547
0.875
0.86523
0.875
0.875
0.88477
0.875
0.86523
0.875
0.88477
0.84961
0.84375
0.85938
0.84375
0.84961
0.83398
0.85938
0.85547
0.86523
0.84375
0.84375
0.85938
0.86523
0.83008
0.82422
0.82031
0.83398
0.83008
0.84375
0.84961
0.82031
0.82031
0.83008
0.82422
0.82422
0.82422
0.87891
0.90039
0.42969
0.054688
-0.013672
0.085938
0.26953
0.49414
0.66992
0.83008
0.88867
0.91992
0.94531
0.93555
0.93945
0.95898
0.95508
0.96484
0.96875
0.97461
0.95508
0.95898
0.91992
0.94531
0.93555
0.94531
0.95508
0.94922
0.95898
0.95508
0.98438
0.96875
0.98438
1
0.99023
1.0039
1.0195
0.96875
0.96484
0.96484
0.96875
0.96875
0.94531
0.91406
0.89453
0.86523
0.875
0.84961
0.84375
0.84961
0.85938
0.83984
0.84961
0.84961
0.84961
0.83008
0.82422
0.84961
0.84961
0.86914
0.85938
0.86914
0.86914
0.87891
0.88477
0.85938
0.84961
0.83398
0.83398
0.84961
0.85547
0.86523
0.85938
0.87891
0.86914
0.86523
0.84961
0.84375
0.81055
0.79883
0.80469
0.81055
0.83008
0.83984
0.82422
0.80469
0.82031
0.82422
0.84961
0.84961
0.85938
0.91992
0.74414
0.33594
0.089844
0.085938
0.21484
0.42969
0.63477
0.77539
0.88867
0.94922
0.97461
0.99023
0.99414
1.0137
1.0137
1.0254
1.0137
1
0.98047
0.98438
0.99414
1.0195
1.0098
0.98438
0.96484
0.97461
0.96875
0.99023
0.98438
0.99023
0.96875
0.99023
1.0137
1.0254
1.0039
1.0195
0.99414
0.98438
0.95508
0.94531
0.91992
0.88867
0.86914
0.86523
0.875
0.84961
0.84961
0.83984
0.84375
0.85547
0.84961
0.85547
0.86523
0.86914
0.875
0.87891
0.875
0.88867
0.9043
0.88867
0.87891
0.88477
0.90039
0.9043
0.88867
0.89453
0.88477
0.9043
0.875
0.86523
0.86523
0.875
0.86914
0.91406
0.91406
0.87891
0.86523
0.86914
0.85938
0.85547
0.85938
0.85938
0.84375
0.83984
0.84375
0.86523
0.86523
0.875
0.86523
0.91016
0.74023
0.31445
0.044922
0.041016
0.20117
0.40039
0.59961
0.75
0.88477
0.95898
0.98438
0.96875
0.99023
0.99023
1.0039
1.0137
0.99023
0.99023
0.99414
1.0039
1.0137
1.0254
1
0.99414
0.96875
0.96484
0.99414
1.0039
0.99023
1
1.0039
1.0293
1.0547
1.0645
1.0547
1.0586
1.0488
1.0547
1.0137
1.0098
0.99023
0.96875
0.92383
0.9043
0.90039
0.90039
0.88867
0.86914
0.85547
0.83398
0.83984
0.84961
0.81055
0.81055
0.81445
0.81055
0.83398
0.82422
0.86523
0.87891
0.88867
0.85547
0.875
0.88867
0.90039
0.87891
0.88867
0.90039
0.91992
0.88477
0.90039
0.91406
0.88477
0.89453
0.90039
0.91016
0.91992
0.88867
0.85547
0.88477
0.9043
0.86914
0.86523
0.875
0.85938
0.87891
0.875
0.88867
0.90039
0.89453
0.94922
0.56055
0.125
0.03125
0.085938
0.25
0.48047
0.68555
0.83984
0.91406
0.95898
1.0039
1.0098
0.99023
1.0098
1.0137
1.0293
1.0449
1.0703
1.084
1.0586
1.0488
1.0547
1.0547
1.0488
1.0547
1.0703
1.0645
1.0703
1.0586
1.0645
1.0703
1.084
1.0801
1.0898
1.084
1.084
1.0801
1.084
1.0645
1.0352
1
0.94922
0.89453
0.87891
0.86914
0.84375
0.83984
0.84961
0.82031
0.80469
0.81445
0.79492
0.82422
0.83398
0.85547
0.86523
0.82031
0.80469
0.81445
0.78906
0.7793
0.79492
0.78516
0.78906
0.81055
0.82031
0.7793
0.78516
0.74414
0.7207
0.68945
0.69922
0.69531
0.70898
0.71484
0.74023
0.69922
0.67578
0.64453
0.625
0.61914
0.63477
0.61914
0.625
0.625
0.60938
0.58008
0.57031
0.58984
0.59961
0.68945
0.76953
0.47461
0.16016
0.26563
0.5957
0.85547
0.87891
0.625
0.54492
1.3887
1.5
1.5
1.5
1.5
1.5
1.5
1.4844
1.1699
0.75977
0.38477
0.17969
-0.22461
-0.49805
-0.49805
-0.31445
0.099609
0.53516
0.75977
0.80469
0.80469
0.80469
0.91016
1
1.0586
1.1152
1.0703
0.95508
0.79492
0.64063
0.43555
0.30078
0.25977
0.31445
0.40039
0.44922
0.4707
0.50977
0.53906
0.60938
0.66016
0.73047
0.79492
0.87891
0.93555
1.0039
1.0898
1.1543
1.2188
1.2988
1.3887
1.4199
1.4531
1.4785
1.4941
1.4785
1.4336
1.3535
1.2637
1.1797
1.1445
1.125
1.0898
1.0703
1.0547
1.0391
1.0293
0.98438
0.95898
0.94922
0.96875
0.95898
0.95508
0.94531
0.91406
0.91406
0.89453
0.88477
0.87891
0.88867
0.92969
0.96484
0.5293
0.15625
0.095703
0.18945
0.3457
0.53906
0.67969
0.83398
0.91406
0.93555
0.96484
0.98438
0.99023
0.98047
1
0.97461
0.96875
0.95508
0.96484
0.96875
0.97461
0.94531
0.95898
0.95508
0.96875
0.98438
0.99414
0.95508
0.96484
0.96875
0.99023
0.99414
1.0137
1.0137
1.0137
1.0137
1.0039
1.0098
0.95508
0.95898
0.90039
0.9043
0.90039
0.9043
0.86523
0.85547
0.84961
0.875
0.85938
0.82422
0.83008
0.82422
0.84375
0.83398
0.82422
0.82031
0.83398
0.83008
0.84961
0.85938
0.84961
0.84961
0.87891
0.88477
0.86914
0.82031
0.80469
0.78906
0.7793
0.77539
0.79883
0.7793
0.73047
0.70508
0.69922
0.68555
0.76563
0.86914
0.91992
0.88867
0.86914
0.87891
0.94922
0.99023
0.99023
0.98438
0.95508
0.94531
0.99023
0.58984
0.18555
0.11523
0.21094
0.375
0.58398
0.72461
0.875
0.98438
1.0449
1.0742
1.0488
1.0254
1
0.98047
0.96484
0.97461
0.98438
0.96875
0.97461
0.91992
0.93945
0.94922
0.92383
0.85938
0.84961
0.86523
0.88477
0.89453
0.91406
0.92969
0.97461
0.99023
1.0293
1.0391
1.0352
1.0586
1.0742
1.084
1.0449
1.0293
1.0293
0.99414
0.98438
0.99023
0.97461
0.99023
0.97461
0.97461
0.96484
0.96875
0.95508
0.96875
0.96484
0.95508
0.94531
0.95508
0.95898
0.94922
0.94531
0.93945
0.92969
0.91992
0.92383
0.94531
0.92383
0.91406
0.90039
0.9043
0.91992
0.91406
0.90039
0.91016
0.92969
0.93945
0.90039
0.86914
0.85547
0.85547
0.88867
0.89453
0.87891
0.85938
0.875
0.875
0.88477
0.86523
0.85547
0.88477
0.92383
0.53906
0.125
0.03125
0.095703
0.25
0.48438
0.6543
0.82031
0.92383
0.96875
1
1.0098
1.0195
1.0391
1.0293
1.0293
1.0449
1.0391
1
0.98047
0.99414
0.99023
0.99414
1
1.0098
1.0137
1
1.0547
1.0391
1
0.99414
1.0137
1.0195
1.0293
1.0293
1.0391
1.0293
1.0195
1
0.96484
0.93945
0.92969
0.90039
0.89453
0.86523
0.88477
0.88867
0.84961
0.84961
0.85547
0.84961
0.85938
0.84961
0.875
0.88477
0.875
0.89453
0.875
0.86523
0.87891
0.90039
0.90039
0.88867
0.86914
0.88477
0.87891
0.86523
0.85938
0.86914
0.875
0.88477
0.875
0.87891
0.86523
0.88867
0.90039
0.89453
0.86914
0.84961
0.84375
0.85938
0.84961
0.85938
0.86523
0.84961
0.86914
0.85938
0.85547
0.84961
0.91016
0.94922
0.65039
0.2207
0.03125
0.064453
0.2207
0.46094
0.65039
0.81055
0.90039
0.93555
0.98047
0.99023
0.98047
0.98438
0.99023
0.99023
0.98438
1.0098
1.0039
1.0137
0.96875
0.97461
0.98047
0.99414
0.97461
0.96875
0.98438
1.0039
1.0293
1.0449
1.0137
1.0391
1.0352
1.0488
1.0586
1.0488
1.0391
1.0547
1.0352
0.98438
0.95508
0.94531
0.93945
0.92383
0.91992
0.91016
0.88867
0.875
0.87891
0.86523
0.89453
0.875
0.86914
0.88867
0.91992
0.91016
0.91016
0.89453
0.90039
0.875
0.90039
0.92383
0.91406
0.9043
0.89453
0.90039
0.91406
0.92969
0.93555
0.91406
0.90039
0.90039
0.9043
0.91992
0.91406
0.91992
0.89453
0.88477
0.87891
0.91016
0.9043
0.91992
0.89453
0.88477
0.88867
0.88477
0.89453
0.91016
0.96484
0.98047
0.46484
0.14063
0.12109
0.20508
0.38477
0.61914
0.76953
0.90039
0.96484
0.99023
1.0098
1.0254
1.0449
1.0391
1.0449
1.0391
1.0547
1.0098
1
1.0254
1.0391
1.0293
1
0.99414
1.0098
1.0137
1.0352
1.0449
1.0645
1.0742
1.0352
1.0391
1.0488
1.0645
1.0586
1.0742
1.0391
1.0547
1.0137
0.99023
0.95898
0.96484
0.94922
0.93555
0.91406
0.91016
0.92383
0.93945
0.90039
0.88477
0.88867
0.90039
0.89453
0.90039
0.91016
0.90039
0.90039
0.90039
0.87891
0.9043
0.92383
0.90039
0.90039
0.90039
0.93555
0.91016
0.91406
0.90039
0.91992
0.91406
0.93945
0.94531
0.94922
0.95898
0.94531
0.96484
0.91992
0.875
0.875
0.85547
0.85938
0.86523
0.86523
0.875
0.86914
0.90039
0.875
0.92383
0.93945
0.4707
0.099609
0.054688
0.16016
0.33984
0.56055
0.73438
0.875
0.95508
0.98047
1
1.0098
0.99414
0.99414
1.0195
1.0254
1.0195
1.0391
1.0137
1.0449
1.0547
1.0293
0.99023
0.99414
1.0039
1.0137
1.0137
1.0449
1.0195
1.0098
1.0137
1.0254
1.0195
1.0391
1.0195
1.0352
1.0391
1.0137
1
1.0039
0.98047
0.91406
0.90039
0.90039
0.89453
0.86523
0.86914
0.86523
0.85938
0.84961
0.88477
0.89453
0.875
0.875
0.87891
0.86523
0.87891
0.89453
0.90039
0.88477
0.90039
0.91406
0.90039
0.875
0.86914
0.89453
0.90039
0.91016
0.88477
0.88867
0.87891
0.91406
0.91016
0.9043
0.91406
0.91406
0.88867
0.86914
0.875
0.88477
0.91406
0.92383
0.88477
0.875
0.89453
0.86914
0.88867
0.88477
0.87891
0.92383
0.97461
0.58984
0.16016
0.035156
0.11133
0.26563
0.50977
0.69922
0.85547
0.92969
1
1.0449
1.0586
1.0195
1.0293
1.0254
1.0352
1.0254
1.0195
1.0137
1.0254
1.0391
1.0137
1.0137
1.0254
1.0293
1.0195
1.0039
1
1.0195
1.0293
1.0645
1.0742
1.0488
1.0449
1.0645
1.0449
1.0586
1.0137
1
1.0039
0.96875
0.91992
0.91992
0.91406
0.91016
0.875
0.875
0.87891
0.88477
0.85938
0.86914
0.875
0.84961
0.87891
0.875
0.88477
0.86914
0.875
0.87891
0.89453
0.86523
0.86914
0.85938
0.85547
0.84961
0.86914
0.86523
0.875
0.88477
0.875
0.85547
0.84375
0.85938
0.84961
0.875
0.87891
0.88477
0.84375
0.83008
0.82422
0.86914
0.84375
0.83984
0.82422
0.83008
0.84961
0.85938
0.83398
0.84375
0.91016
0.92969
0.40039
0.080078
0.050781
0.15625
0.35547
0.5293
0.69531
0.82422
0.91016
0.95508
0.97461
0.99023
1
0.99414
1.0137
1.0195
0.97461
0.96484
0.96484
0.97461
0.99023
0.99023
0.99414
0.96875
0.99023
0.95898
0.94922
0.98047
0.97461
0.99414
1.0098
1.0137
1.0547
1.0586
1.0137
0.99414
1.0039
0.98438
0.96875
0.98438
0.95508
0.92969
0.88477
0.875
0.87891
0.83398
0.83398
0.85547
0.86914
0.85938
0.84375
0.83398
0.83008
0.83984
0.84961
0.88477
0.90039
0.875
0.87891
0.9043
0.92969
0.89453
0.875
0.87891
0.89453
0.87891
0.90039
0.88867
0.91016
0.91406
0.91992
0.90039
0.91992
0.90039
0.88867
0.875
0.86523
0.86523
0.85938
0.90039
0.89453
0.875
0.875
0.86914
0.88867
0.9043
0.89453
0.9043
0.99414
0.82031
0.36523
0.099609
0.085938
0.21484
0.41016
0.61523
0.78516
0.91992
0.98047
1.0098
1.0195
0.98438
1
1.0137
1.0137
1.0195
0.99414
0.98438
0.98438
0.99023
1.0137
1.0137
0.98047
0.96484
0.99414
0.99023
0.99414
1.0137
1.0293
1.0137
1.0391
1.0488
1.0547
1.0391
1.0352
1.0391
1.0195
0.99023
0.98047
0.98438
0.96484
0.93555
0.90039
0.89453
0.88477
0.86523
0.85547
0.85938
0.86523
0.875
0.875
0.88477
0.875
0.85938
0.83984
0.84961
0.86523
0.86914
0.875
0.90039
0.90039
0.90039
0.90039
0.91016
0.89453
0.84961
0.84375
0.85547
0.84961
0.86523
0.875
0.88867
0.90039
0.9043
0.91016
0.85547
0.84375
0.82422
0.84961
0.83984
0.83984
0.84961
0.85938
0.85547
0.87891
0.89453
0.88477
0.93945
0.95898
0.36523
0.064453
0.044922
0.16992
0.39063
0.56445
0.7207
0.84375
0.92969
0.95898
0.96875
0.95508
0.97461
0.99414
1.0137
1.0098
1
0.99414
1.0137
0.99023
0.96875
0.98438
0.99023
0.99023
1
0.98438
1.0195
1.0254
0.99414
1.0137
1.0293
1.0488
1.0586
1.0703
1.0645
1.084
1.0586
1.0195
0.99414
0.99023
0.96484
0.94922
0.91992
0.92969
0.92969
0.91016
0.86523
0.84961
0.85547
0.875
0.85938
0.85547
0.87891
0.88477
0.875
0.91016
0.92383
0.86914
0.83398
0.84375
0.86914
0.875
0.875
0.875
0.90039
0.9043
0.88477
0.83984
0.85938
0.85547
0.86914
0.85547
0.86914
0.89453
0.91406
0.91992
0.91406
0.83984
0.81445
0.84375
0.875
0.85547
0.85938
0.85938
0.85547
0.875
0.86914
0.86523
0.86914
0.88477
0.91016
0.48438
0.10547
0.019531
0.070313
0.24023
0.49023
0.69922
0.83398
0.9043
0.93945
0.97461
0.99023
1
0.99023
1.0098
1.0137
1
1.0039
0.97461
0.96875
0.96875
0.98438
0.99023
0.99023
0.98047
1.0137
1.0254
0.99023
0.98047
1.0137
1.0137
1.0254
1.0195
1.0352
1.0391
1.0488
1.0547
1.0352
0.98047
0.96875
0.94922
0.92383
0.90039
0.88477
0.90039
0.86523
0.83984
0.83398
0.84961
0.86914
0.88477
0.85547
0.875
0.83984
0.84961
0.83398
0.84961
0.85938
0.88477
0.875
0.89453
0.90039
0.875
0.87891
0.875
0.86523
0.85547
0.84961
0.85938
0.875
0.875
0.89453
0.875
0.88867
0.87891
0.87891
0.86914
0.84961
0.83398
0.85938
0.875
0.86523
0.83984
0.84961
0.83984
0.84961
0.85547
0.84961
0.85547
0.94531
0.76563
0.3457
0.060547
0.050781
0.15625
0.38477
0.58984
0.74414
0.87891
0.93945
0.96484
0.98047
0.99023
0.98438
0.99023
1
0.98047
0.98047
0.96484
0.95508
0.96875
0.96875
0.96875
0.96875
0.97461
0.99023
1
0.96875
0.99023
0.99414
1
1.0137
1.0039
1.0137
1.0098
1.0195
0.99023
0.98438
0.97461
0.98047
0.96484
0.92383
0.9043
0.87891
0.84961
0.85938
0.86914
0.875
0.84961
0.85938
0.88477
0.875
0.85547
0.84961
0.85938
0.84961
0.86914
0.86523
0.89453
0.85547
0.84961
0.85938
0.86914
0.875
0.86523
0.86914
0.86523
0.85547
0.85938
0.83984
0.83984
0.83008
0.84375
0.84961
0.83984
0.84961
0.82031
0.78906
0.7793
0.79492
0.75391
0.75977
0.75391
0.79492
0.80469
0.81445
0.83984
0.86523
0.84961
0.96484
0.97461
0.43555
0.095703
0.080078
0.17578
0.39063
0.58984
0.74023
0.86914
0.94531
0.99023
0.98047
0.96875
0.96875
0.98047
0.99023
1
0.99414
1
0.98047
0.99023
0.99023
1
1.0039
1.0137
1.0195
1.0039
0.99414
1.0039
1.0039
1.0137
1.0293
1.0547
1.0586
1.0996
1.1035
1.084
1.084
1.0938
1.0391
1.0293
1.0195
1.0098
0.97461
0.93945
0.92383
0.9043
0.91016
0.89453
0.85547
0.83008
0.84961
0.85938
0.84375
0.83008
0.86523
0.86914
0.875
0.84961
0.83398
0.81445
0.83008
0.83984
0.82422
0.81055
0.81445
0.82422
0.82422
0.80469
0.79492
0.80469
0.82031
0.82422
0.80469
0.81445
0.80469
0.83984
0.84961
0.85938
0.83398
0.84961
0.85547
0.82422
0.82031
0.83984
0.83398
0.84961
0.85938
0.83984
0.91406
0.58984
0.17578
0.060547
0.089844
0.19531
0.42969
0.62891
0.79492
0.88477
0.93945
0.96484
0.99023
0.99414
1.0137
1.0254
1.0293
1.0391
1.0586
1.0586
1.0391
1.0352
1.0391
1.0352
1.0293
1.0137
1.0098
0.99414
1.0039
1.0293
1.0391
1.0137
1.0254
1.0137
1.0352
1.0547
1.0391
1.0586
1.0488
1.0449
1.0391
1.0449
1
0.96484
0.93555
0.94531
0.93945
0.91406
0.88867
0.85938
0.84375
0.83398
0.83398
0.84961
0.81055
0.78516
0.79492
0.81055
0.82031
0.78516
0.77539
0.7793
0.83008
0.83398
0.81055
0.80469
0.83984
0.84961
0.88477
0.90039
0.91406
0.90039
0.91016
0.91992
0.88867
0.91016
0.92969
0.93555
0.91406
0.9043
0.91992
0.94531
0.91406
0.88477
0.89453
0.91016
0.88867
0.875
0.86914
0.875
0.86523
0.92383
0.93555
0.35938
0.044922
0.025391
0.095703
0.30078
0.5293
0.70898
0.85938
0.95508
1.0098
1.0137
1.0195
1.0254
1.0195
1.0391
1.0586
1.0645
1.0352
1
1.0039
0.97461
0.98047
0.96484
0.95898
0.94531
0.95898
0.96875
0.99023
0.99023
0.96875
0.97461
0.98438
1.0098
1.0254
1.0137
1.0137
1.0195
1
1
0.98438
0.95508
0.93945
0.93555
0.91992
0.92383
0.91406
0.90039
0.88477
0.88867
0.88477
0.87891
0.875
0.875
0.88477
0.90039
0.91406
0.92383
0.91406
0.89453
0.90039
0.88477
0.86914
0.86523
0.87891
0.85938
0.83008
0.83398
0.84375
0.84961
0.875
0.88867
0.89453
0.875
0.88867
0.9043
0.91016
0.89453
0.87891
0.84961
0.85938
0.89453
0.90039
0.86914
0.84961
0.83984
0.83398
0.82422
0.82422
0.83398
0.86914
0.9043
0.53516
0.12109
-0.0097656
0.054688
0.21094
0.45508
0.64453
0.80469
0.88867
0.96875
0.94531
0.95898
0.96484
0.98047
0.99023
0.96875
0.96875
0.97461
0.98438
0.96875
0.97461
0.94922
0.96484
0.96875
0.96484
0.96875
0.95898
0.95898
0.98047
1.0098
1.0195
0.96875
0.99023
0.98438
1
0.97461
0.98047
0.96875
0.95898
0.96484
0.92969
0.875
0.87891
0.88867
0.88477
0.87891
0.88477
0.86914
0.83008
0.83008
0.82422
0.82422
0.79883
0.81445
0.81445
0.83984
0.84375
0.84375
0.82422
0.84375
0.82422
0.83008
0.83398
0.83984
0.83398
0.84961
0.84961
0.86523
0.86914
0.83398
0.84961
0.875
0.87891
0.86523
0.88477
0.88477
0.89453
0.86523
0.85547
0.84961
0.85547
0.84961
0.85938
0.84375
0.83984
0.83398
0.875
0.85938
0.85547
0.91992
0.66406
0.27539
0.076172
0.11133
0.2207
0.44531
0.64453
0.78906
0.88867
0.93555
0.95508
0.97461
0.98438
1
1.0137
1.0254
0.96875
0.98438
0.96875
0.98438
0.95508
0.96484
0.98047
0.99414
1.0137
0.99414
1.0039
1.0098
0.99023
1.0039
1.0137
1.0254
1.0352
1.0137
1.0293
1.0391
1.0547
1.0352
0.99414
0.99023
0.98047
0.94531
0.92969
0.92969
0.89453
0.88867
0.89453
0.875
0.85938
0.86523
0.84961
0.86914
0.875
0.86914
0.875
0.87891
0.875
0.90039
0.875
0.87891
0.875
0.87891
0.85547
0.86523
0.86523
0.875
0.86914
0.90039
0.88477
0.875
0.90039
0.88867
0.89453
0.91016
0.91016
0.90039
0.875
0.85938
0.85938
0.88477
0.875
0.86523
0.83984
0.83398
0.86523
0.86914
0.86914
0.86914
0.92383
0.95508
0.49414
0.11523
0.060547
0.13477
0.29102
0.50977
0.70508
0.83008
0.91992
0.97461
1.0098
1.0039
1.0137
0.99414
0.99023
1.0137
1.0137
1.0195
0.99023
0.99414
1
1.0137
1.0293
1.0391
0.99023
1
1.0039
1.0137
1.0137
1.0391
1.0488
1.0391
1.0645
1.084
1.0488
1.0293
1.0547
1.0586
1.0254
1
0.98438
0.94922
0.91992
0.90039
0.87891
0.875
0.89453
0.90039
0.89453
0.875
0.87891
0.88867
0.90039
0.875
0.86914
0.84961
0.86914
0.88477
0.91406
0.89453
0.88477
0.875
0.89453
0.91016
0.91406
0.86914
0.85938
0.88477
0.86523
0.87891
0.86914
0.86914
0.89453
0.90039
0.89453
0.90039
0.87891
0.85938
0.84375
0.875
0.87891
0.86523
0.86914
0.85938
0.86523
0.84961
0.84961
0.86914
0.87891
0.86523
0.92383
0.76953
0.29102
0.015625
0.064453
0.16016
0.35938
0.57422
0.75
0.87891
0.94922
0.97461
0.99023
1.0137
1.0352
1.0391
1
0.99414
1.0195
1.0039
1.0137
1.0195
1.0039
1
1.0293
1.0391
1
1
1.0039
1.0137
1
1.0195
1.0547
1.0586
1.0645
1.0801
1.0391
1.0254
1.0195
1.0293
0.98438
0.97461
0.98047
0.94531
0.91992
0.90039
0.90039
0.88477
0.86523
0.86523
0.85938
0.88867
0.90039
0.87891
0.84375
0.85547
0.875
0.89453
0.87891
0.86523
0.875
0.86523
0.88867
0.86914
0.85938
0.86523
0.84961
0.86914
0.89453
0.86914
0.85938
0.85938
0.875
0.85547
0.84375
0.875
0.88477
0.88477
0.87891
0.85547
0.81055
0.84375
0.85547
0.82422
0.82031
0.82422
0.83008
0.84961
0.86914
0.87891
0.85547
0.91406
0.93945
0.50977
0.11523
0.0058594
0.076172
0.27539
0.50586
0.6543
0.78906
0.89453
0.95508
0.94531
0.93555
0.94531
0.96875
0.97461
0.96484
0.96875
0.95508
0.93555
0.95508
0.94531
0.92383
0.93555
0.94531
0.96484
0.93945
0.93555
0.96484
0.94531
0.95898
0.99023
1.0195
1.0293
0.99023
0.99023
0.98438
0.99023
1.0137
1.0293
0.94531
0.91406
0.91016
0.91406
0.875
0.875
0.84961
0.85938
0.86914
0.875
0.85547
0.85938
0.84375
0.85938
0.82422
0.84375
0.84961
0.84375
0.83984
0.85547
0.83984
0.84961
0.86523
0.85938
0.875
0.88477
0.88867
0.89453
0.87891
0.86523
0.86914
0.85938
0.88867
0.87891
0.875
0.875
0.88477
0.89453
0.86523
0.83984
0.84961
0.83984
0.83398
0.82031
0.81055
0.82422
0.84961
0.86523
0.84961
0.86523
0.93945
0.7207
0.31055
0.076172
0.070313
0.22461
0.42969
0.61523
0.78516
0.91406
0.94531
0.95508
0.96875
0.97461
0.98047
0.99023
0.99414
1.0098
1
0.99023
1
1.0391
1.0449
1.0098
1
0.98438
0.97461
0.96875
0.95898
0.96875
0.99023
1
1.0254
1.0195
1.0195
1.0195
1.0391
1.0391
1.0352
1.0039
0.96875
0.96875
0.96875
0.94531
0.94922
0.95508
0.94531
0.91992
0.90039
0.91992
0.9043
0.91406
0.91992
0.91016
0.875
0.875
0.86523
0.86914
0.88867
0.89453
0.83008
0.84375
0.83398
0.83008
0.83398
0.83984
0.80469
0.81445
0.82031
0.85938
0.86914
0.82031
0.83008
0.86523
0.87891
0.91016
0.91992
0.88867
0.875
0.85547
0.88477
0.87891
0.88477
0.875
0.89453
0.90039
0.92383
0.94531
0.96484
0.94922
1
0.73438
0.28516
0.11523
0.16016
0.24609
0.46484
0.61914
0.75391
0.86523
0.90039
0.91016
0.93945
0.96484
0.96484
0.99414
1.0137
1.0391
1.0547
1.0898
1.1152
1.1445
1.125
1.1289
1.1094
1.084
1.0586
1.0586
1.0488
1.0254
1.0293
1.0449
1.0547
1.0039
0.99414
0.99023
0.99414
0.96875
0.95508
0.91992
0.9043
0.90039
0.88477
0.85938
0.86523
0.83984
0.84375
0.83398
0.84375
0.86523
0.88867
0.87891
0.88477
0.875
0.88867
0.91406
0.91992
0.91406
0.90039
0.91992
0.93555
0.94531
0.93555
0.95898
0.94531
0.96484
0.94922
0.95508
0.94922
0.96484
0.96875
0.98047
0.98047
0.97461
0.94922
0.91992
0.88477
0.84375
0.80469
0.78516
0.7793
0.79883
0.80469
0.79883
0.80469
0.81055
0.82422
0.81055
0.80469
0.82422
0.83398
0.87891
0.93945
0.5957
0.17578
0.064453
0.14063
0.29492
0.55078
0.75391
0.91992
1.0391
1.0938
1.1602
1.2148
1.1836
1.125
1.084
1.0586
1.0391
1
0.97461
0.96875
0.97461
0.99414
1
0.94922
0.94531
0.93555
0.95898
0.95508
0.94531
0.94531
0.96484
0.96875
1
1.0137
1.0137
1.0137
0.99414
0.94531
0.94922
0.91016
0.89453
0.83984
0.79492
0.78906
0.7793
0.80469
0.81445
0.79492
0.79883
0.83008
0.84375
0.89453
0.91992
0.95898
0.99023
1
0.99414
1.0137
1.0098
1.0293
1.0391
1.0586
1.0742
1.084
1.0996
1.0703
1.0449
1.0352
0.99414
0.95898
0.95508
0.96484
0.93555
0.91406
0.89453
0.85547
0.85938
0.84961
0.85938
0.86523
0.83008
0.80469
0.81445
0.82422
0.82422
0.81055
0.79883
0.7793
0.80469
0.82422
0.82422
0.83984
0.91406
0.58984
0.125
-0.039063
0.025391
0.17578
0.42969
0.64063
0.75391
0.85938
0.92969
0.94531
0.91992
0.93555
0.93555
0.93945
0.93945
0.94531
0.93555
0.91992
0.92383
0.93945
0.95898
0.96484
0.94922
0.95508
0.95898
0.95508
0.96484
0.94922
0.97461
0.96484
0.99023
1.0137
1.0293
1.0039
1.0254
1.0195
1
0.99414
0.96875
0.94531
0.93555
0.9043
0.91992
0.87891
0.84961
0.84375
0.83398
0.83984
0.83008
0.84961
0.86523
0.83398
0.81445
0.82031
0.82422
0.83398
0.83008
0.84961
0.84961
0.83984
0.83398
0.86523
0.84961
0.83984
0.85547
0.86523
0.84961
0.86914
0.875
0.84961
0.83398
0.84375
0.84961
0.86523
0.87891
0.89453
0.90039
0.85547
0.83398
0.83008
0.875
0.84961
0.84961
0.84375
0.85547
0.84961
0.85938
0.84961
0.86523
0.93555
0.70898
0.29492
0.064453
0.11133
0.22461
0.43945
0.62891
0.78906
0.88477
0.92383
0.94922
0.98047
0.99023
1.0098
1.0039
1.0137
0.98047
1.0137
0.98438
0.97461
0.98438
0.99023
0.96875
0.98438
1
1.0098
0.97461
1.0098
1.0254
1.0137
1.0391
1.0488
1.0449
1.0547
1.0449
1.0391
1.0449
1.0195
1.0352
0.98047
0.97461
0.95508
0.94531
0.92383
0.93555
0.90039
0.88867
0.875
0.875
0.86914
0.88477
0.90039
0.9043
0.875
0.88867
0.88477
0.90039
0.9043
0.90039
0.88867
0.9043
0.91016
0.88867
0.89453
0.91992
0.92969
0.89453
0.90039
0.88867
0.90039
0.89453
0.91016
0.9043
0.90039
0.9043
0.93945
0.92383
0.9043
0.85547
0.86523
0.86914
0.87891
0.84961
0.85938
0.875
0.875
0.88477
0.86914
0.84961
0.88477
0.93945
0.65039
0.2207
0.060547
0.11133
0.24609
0.47461
0.64453
0.81055
0.93945
0.98047
1.0195
1.0293
1.0195
1.0352
1.0391
1.0391
1.0449
1.0586
1.0293
1.0137
1.0352
1.0293
1.0352
1.0352
1.0449
1.0352
1.0391
1.0488
1.0449
1.0547
1.0742
1.0801
1.0898
1.084
1.0742
1.084
1.0996
1.0801
1.0703
1.0352
1.0098
0.97461
0.95508
0.93945
0.94922
0.93945
0.90039
0.90039
0.9043
0.91992
0.90039
0.86914
0.86523
0.875
0.875
0.90039
0.90039
0.9043
0.89453
0.91406
0.93555
0.91992
0.89453
0.90039
0.90039
0.88477
0.87891
0.90039
0.90039
0.9043
0.91406
0.90039
0.92383
0.90039
0.875
0.9043
0.91992
0.91016
0.90039
0.875
0.86914
0.86914
0.90039
0.88867
0.87891
0.88477
0.84375
0.85938
0.875
0.86523
0.86914
0.87891
0.95508
0.70508
0.25977
0.019531
0.050781
0.15625
0.39453
0.59961
0.75977
0.91406
0.98047
0.99023
1.0352
1.0449
1.0488
1.0645
1.0586
1.0586
1.0547
1.0586
1.0391
1.0352
1.0586
1.0703
1.0254
1.0137
1.0391
1.0098
1.0254
1.0137
1.0352
1.0449
1.0391
1.0645
1.0801
1.0586
1.0645
1.0547
1.0352
1.0254
1.0039
0.99023
0.99414
0.94922
0.91406
0.87891
0.875
0.89453
0.88867
0.90039
0.88867
0.90039
0.91016
0.88867
0.86523
0.84961
0.86523
0.875
0.86914
0.88477
0.89453
0.91016
0.88477
0.875
0.88477
0.91016
0.91992
0.90039
0.87891
0.88477
0.90039
0.91016
0.86914
0.85938
0.84961
0.85938
0.875
0.90039
0.91406
0.93945
0.875
0.82422
0.81445
0.83008
0.85547
0.82422
0.83398
0.84961
0.85938
0.83984
0.84375
0.82422
0.85547
0.92969
0.68555
0.25
0
0.019531
0.13086
0.36523
0.58008
0.75
0.86914
0.93945
0.96875
0.99023
1.0098
1.0137
0.96875
0.95898
0.96875
0.97461
0.93945
0.94531
0.96484
0.98047
0.93945
0.95898
0.98438
0.96484
0.94531
0.94922
0.94531
0.98438
0.99023
0.97461
0.99023
1.0098
0.99414
1.0195
1.0293
0.98438
0.99023
0.98047
0.98047
0.97461
0.91406
0.89453
0.86914
0.86523
0.90039
0.84375
0.82031
0.82031
0.83984
0.83008
0.83984
0.84961
0.86523
0.86914
0.85938
0.875
0.85547
0.84375
0.85547
0.86523
0.84961
0.86523
0.875
0.86523
0.84961
0.86914
0.84961
0.85547
0.84961
0.86914
0.84961
0.87891
0.90039
0.88867
0.875
0.86523
0.82422
0.83008
0.84961
0.86523
0.82422
0.83398
0.82422
0.83398
0.83984
0.83398
0.83984
0.82422
0.91406
0.93555
0.38086
0.041016
0.064453
0.14063
0.33984
0.54492
0.73047
0.84375
0.91406
0.95508
0.99023
1
1.0039
0.97461
0.96875
0.98438
0.95508
0.93945
0.94922
0.94531
0.93945
0.94531
0.96484
0.99023
1.0098
1.0137
0.95898
0.93945
0.94531
0.96875
0.98438
1
0.99414
1.0195
1.0293
1.0391
1.0137
1.0293
0.97461
0.94922
0.93945
0.93555
0.9043
0.90039
0.88477
0.87891
0.88867
0.875
0.85938
0.86523
0.84961
0.83398
0.82422
0.83398
0.84961
0.875
0.88867
0.85547
0.875
0.85938
0.85938
0.83984
0.86914
0.88477
0.88867
0.87891
0.86914
0.85547
0.86523
0.84961
0.86914
0.87891
0.83984
0.84961
0.84961
0.85938
0.86523
0.83984
0.89453
0.7207
0.29102
0.050781
0.085938
0.17578
0.36523
0.58984
0.75977
0.88477
0.92969
0.98047
0.95898
0.96484
0.96875
0.99414
0.99023
1.0098
1.0195
1.0137
1.0352
1.0137
0.99023
1.0098
1.0137
1.0098
1.0293
1.0254
1.0586
1.0801
1.084
1.0449
1.0703
1.0586
1.0703
1.0488
1.0547
1.0391
1.0488
1.0352
1.0137
0.97461
0.93555
0.91016
0.90039
0.91016
0.875
0.85938
0.85547
0.875
0.88867
0.86914
0.83398
0.84961
0.85938
0.875
0.88867
0.90039
0.86914
0.875
0.88477
0.87891
0.85547
0.86523
0.875
0.875
0.86523
0.89453
0.91406
0.89453
0.875
0.88477
0.87891
0.88477
0.86523
0.85547
0.84961
0.85938
0.88867
0.87891
0.88867
0.90039
0.85547
0.82031
0.83008
0.84961
0.86523
0.85938
0.89453
0.90039
0.85547
0.83398
0.84375
0.86523
0.88867
0.875
0.84961
0.85938
0.84961
0.875
0.86914
0.88477
0.85547
0.94922
0.68555
0.24609
0.025391
0.085938
0.21094
0.4707
0.64453
0.76953
0.88477
0.94922
0.96875
1.0098
1
1.0039
0.99023
1
1.0137
1
0.99414
0.98047
0.99023
0.98438
0.99414
0.99023
1.0098
0.99023
1.0098
1.0098
1.0137
1.0254
1.0449
1.0254
1.0449
1.0547
1.0488
1.0254
1.0391
1.0391
1.0488
1.0195
1.0039
0.98438
0.94531
0.95898
0.94531
0.9043
0.89453
0.90039
0.89453
0.86523
0.84961
0.875
0.86523
0.88867
0.875
0.87891
0.875
0.90039
0.86914
0.85938
0.87891
0.88477
0.88867
0.87891
0.875
0.88867
0.90039
0.9043
0.88867
0.88477
0.88867
0.89453
0.87891
0.86914
0.875
0.86914
0.86523
0.85938
0.88867
0.89453
0.90039
0.91016
0.88477
0.85547
0.84961
0.85938
0.85547
0.82422
0.83984
0.84375
0.84375
0.82422
0.9043
0.91406
0.32422
0.019531
0.0097656
0.11133
0.33984
0.55469
0.70898
0.83398
0.9043
0.91992
0.94922
0.96875
0.96875
0.99414
1
0.96875
0.97461
0.96875
0.93945
0.93945
0.94922
0.95898
0.98047
0.99023
0.95898
0.95898
0.96875
0.98438
0.97461
0.96875
1
1.0137
1.0254
1.0254
0.99023
0.99023
0.98438
0.97461
0.99023
0.94531
0.92969
0.91406
0.91992
0.88867
0.84375
0.83984
0.83984
0.84375
0.83008
0.84961
0.86523
0.83398
0.82422
0.84961
0.83984
0.86523
0.85547
0.84961
0.86914
0.875
0.85938
0.86523
0.86523
0.86523
0.85547
0.85938
0.84961
0.86523
0.87891
0.89453
0.86914
0.84375
0.84375
0.86523
0.875
0.85547
0.83008
0.85547
0.875
0.88867
0.90039
0.85547
0.83984
0.83398
0.85547
0.84961
0.83984
0.83008
0.85547
0.83398
0.82422
0.84375
0.85938
0.93945
0.94531
0.39453
0.064453
0.050781
0.16016
0.35938
0.55469
0.7207
0.85547
0.93555
0.96875
0.96484
0.98047
0.99023
0.96875
0.98438
0.98047
1.0039
0.98438
0.99023
0.96875
0.96875
0.96875
0.96875
0.96875
0.99414
1.0137
1.0195
0.97461
0.99023
0.99414
1.0098
1.0254
1.0293
1.0352
1.0137
1.0195
1
1.0098
0.96875
0.98438
0.94531
0.91992
0.91016
0.92969
0.93555
0.88867
0.86914
0.84961
0.83398
0.84375
0.85547
0.84961
0.86914
0.89453
0.90039
0.88477
0.86914
0.88477
0.90039
0.87891
0.875
0.88477
0.90039
0.90039
0.875
0.88867
0.89453
0.85547
0.88477
0.88867
0.9043
0.88477
0.89453
0.90039
0.88867
0.87891
0.88477
0.86523
0.875
0.85547
0.83008
0.85547
0.86914
0.875
0.85938
0.86523
0.86914
0.86523
0.85938
0.84375
0.86523
0.95898
0.74023
0.32031
0.076172
0.11523
0.19531
0.41602
0.59961
0.75977
0.87891
0.95898
0.99023
0.98438
0.98047
1
1.0098
1.0039
0.97461
0.96875
0.98438
0.99414
0.98438
0.96484
0.98438
0.98047
0.99023
0.99414
1
1.0195
1.0352
1.0137
1.0293
1.0293
1.0586
1.0645
1.0449
1.0293
1.0137
1.0137
1.0137
0.99023
0.95898
0.91406
0.90039
0.9043
0.86914
0.86914
0.86523
0.86914
0.84961
0.84961
0.85547
0.86523
0.86523
0.87891
0.84375
0.85938
0.84961
0.85547
0.87891
0.88477
0.86523
0.875
0.88867
0.90039
0.875
0.87891
0.84961
0.83984
0.85938
0.86523
0.86914
0.87891
0.875
0.86914
0.85547
0.86523
0.875
0.89453
0.88477
0.83008
0.84375
0.84961
0.84375
0.84961
0.85547
0.83984
0.82422
0.85938
0.86523
0.84375
0.83984
0.91406
0.76953
0.30469
0.03125
0.025391
0.16016
0.39453
0.60938
0.75977
0.88477
0.93945
0.97461
1.0254
1.0293
1.0137
1.0039
1
1.0098
1.0137
0.99023
1.0039
1.0098
1.0137
1.0098
1.0254
1.0195
1.0352
1.0195
1.0098
1.0254
1.0195
1.0586
1.0586
1.0586
1.0586
1.0703
1.0742
1.0645
1.0586
1.0547
1.0098
0.99023
0.96875
0.95508
0.93945
0.91406
0.88477
0.87891
0.875
0.875
0.87891
0.86523
0.85547
0.87891
0.90039
0.9043
0.91406
0.85938
0.86523
0.875
0.90039
0.88867
0.88477
0.875
0.89453
0.9043
0.94922
0.92969
0.9043
0.86523
0.875
0.875
0.89453
0.90039
0.90039
0.87891
0.875
0.9043
0.90039
0.875
0.88477
0.89453
0.88477
0.9043
0.875
0.84961
0.84961
0.875
0.85547
0.875
0.88477
0.84961
0.84961
0.84961
0.83984
0.84961
0.88477
0.94531
0.66016
0.23047
0.015625
0.076172
0.19531
0.43555
0.625
0.78516
0.90039
0.96484
0.98438
1
1.0293
1.0137
1.0293
1.0254
1.0391
0.98047
0.99023
1.0039
1.0137
1.0039
1.0098
1.0039
0.96875
0.96875
0.98438
0.99023
1.0137
1.0137
1.0293
1.0391
1.0488
1.0254
1.0098
1.0039
0.99414
1.0098
0.99023
1
0.99023
0.94922
0.92969
0.91992
0.89453
0.86914
0.84961
0.84961
0.84961
0.875
0.85938
0.83398
0.84375
0.85547
0.84961
0.85938
0.81445
0.80469
0.84961
0.81445
0.80469
0.79883
0.81445
0.80469
0.81445
0.83008
0.83398
0.77539
0.78906
0.79492
0.82422
0.83008
0.84375
0.84961
0.85547
0.86914
0.89453
0.90039
0.91992
0.91992
0.92969
0.91406
0.90039
0.91406
0.93945
0.95508
0.96484
0.94531
0.92383
0.94922
0.96875
0.96484
0.93555
0.98047
1.0098
0.55469
0.15625
0.076172
0.125
0.30469
0.53516
0.7207
0.83398
0.91406
0.96484
0.99414
0.99023
1
1.0137
1.0195
0.96875
0.94531
0.95898
0.95508
0.96875
0.95898
0.96875
0.95508
0.97461
0.98438
0.96875
0.96875
0.96875
0.98047
1
1.0254
1.0449
1.0391
1.0039
0.96875
0.98438
0.99414
0.97461
0.96875
0.96875
0.95898
0.94531
0.93945
0.94531
0.86914
0.85547
0.85938
0.86914
0.9043
0.94922
1.0488
1.1191
1.1602
1.1543
1.2246
1.1289
1.1191
1.2598
1.4238
1.459
1.1641
0.94922
0.79883
0.77539
0.74414
0.70508
0.68945
0.70898
0.70508
0.68945
0.67578
0.67969
0.66016
0.68555
0.67969
0.68555
0.66016
0.625
0.59961
0.5957
0.60547
0.5957
0.55469
0.53906
0.5293
0.54492
0.56445
0.58984
0.5957
0.62891
0.66016
0.69531
0.71484
0.75977
0.81445
0.84375
0.85938
0.85547
0.91406
0.92969
0.90039
0.88477
0.87891
0.91016
0.91992
0.88867
0.88477
0.90039
0.90039
0.9043
0.92383
0.91406
0.875
0.86914
0.875
0.88867
0.875
0.88477
0.90039
0.89453
0.86523
0.875
0.88477
0.89453
0.9043
0.91992
0.86914
0.875
0.86523
0.89453
0.90039
0.87891
0.88867
0.875
0.90039
0.89453
0.86914
0.875
0.875
0.85938
0.84961
0.85547
0.86523
0.84961
0.86914
0.86914
0.89453
0.90039
0.9043
0.83984
0.84375
0.85938
0.86914
0.84375
0.86523
0.84961
0.85938
0.875
0.87891
0.85547
0.86914
0.93945
0.79492
0.33984
0.064453
0.085938
0.17578
0.39063
0.59961
0.74414
0.84961
0.93555
0.97461
0.99414
0.99023
1.0098
1.0195
1.0391
1.0098
1
0.99414
1.0137
1.0137
1.0039
1
1.0137
0.99023
1
1.0098
0.98047
1.0137
1.0352
1.0137
1.0039
1.0293
1.0195
1.0391
1.0488
1.0586
1.0645
1.0703
1.0586
1.0098
0.91992
0.91406
0.92383
0.91406
0.91992
0.90039
0.91406
0.88867
0.86914
0.87891
0.86914
0.85547
0.91992
0.99414
1.0898
1.1543
1.1641
1.0996
1.1797
1.1484
1.1992
1.2695
1.4395
1.4746
1.2695
1
0.84961
0.76563
0.72461
0.70508
0.70898
0.69922
0.70508
0.69531
0.68555
0.68555
0.69531
0.66992
0.6543
0.64453
0.66016
0.64063
0.60938
0.57031
0.55078
0.53906
0.49023
0.42969
0.39453
0.38477
0.43555
0.48047
0.51563
0.56055
0.59961
0.66992
0.7207
0.76953
0.81055
0.84375
0.85547
0.89453
0.91992
0.92383
0.93945
0.94531
0.91992
0.92969
0.93945
0.94531
0.94922
0.92383
0.93945
0.91992
0.96484
0.93945
0.9043
0.90039
0.91992
0.91406
0.9043
0.89453
0.9043
0.90039
0.92383
0.91992
0.91016
0.91406
0.88477
0.875
0.89453
0.90039
0.9043
0.91406
0.88867
0.90039
0.91406
0.93555
0.88867
0.90039
0.88477
0.875
0.86914
0.89453
0.875
0.86914
0.88477
0.875
0.88867
0.88477
0.91016
0.91992
0.91016
0.89453
0.86523
0.84961
0.875
0.87891
0.88867
0.875
0.875
0.875
0.88477
0.87891
0.90039
0.88477
0.97461
0.53906
0.13477
0.025391
0.11133
0.30469
0.54492
0.7207
0.83984
0.91992
0.97461
1.0098
1.0137
1.0137
1.0098
1.0254
1
1.0137
1
0.99023
0.99023
0.96875
0.97461
0.98047
0.97461
0.99414
0.99023
0.99414
0.98047
1.0098
1.0039
1.0137
1.0195
1.0137
1.0137
1.0137
1.0293
1.0449
1.0547
1.0137
0.99023
0.97461
0.95508
0.92969
0.90039
0.87891
0.88477
0.875
0.86523
0.875
0.86914
0.86523
0.875
0.875
0.88477
0.875
0.86523
0.86914
0.875
0.86914
0.87891
0.875
0.875
0.90039
0.92969
0.88867
0.875
0.87891
0.875
0.9043
0.88477
0.875
0.86914
0.875
0.84961
0.86914
0.88477
0.9043
0.875
0.90039
0.87891
0.88867
0.84961
0.85547
0.85938
0.88867
0.86914
0.875
0.85547
0.85938
0.84961
0.85938
0.86914
0.85547
0.94531
0.65039
0.23438
0.054688
0.089844
0.20508
0.46484
0.66016
0.79883
0.88477
0.96484
1.0039
0.99023
0.99023
1.0137
1.0137
1.0137
0.98438
1
1.0098
0.99023
1
1.0039
0.99414
0.98438
1
1.0195
1.0293
1.0039
1.0098
0.99414
1
1.0137
1.0488
1.0586
1.0391
1.0547
1.0352
1.0098
1.0137
0.99414
0.96484
0.94531
0.91992
0.9043
0.91992
0.90039
0.84961
0.85938
0.875
0.88867
0.875
0.88867
0.85938
0.86523
0.86523
0.89453
0.90039
0.875
0.87891
0.9043
0.90039
0.91992
0.875
0.85938
0.85547
0.87891
0.88867
0.87891
0.85938
0.86914
0.87891
0.875
0.89453
0.89453
0.91992
0.92383
0.88867
0.875
0.85547
0.84375
0.88867
0.86523
0.84961
0.83984
0.86523
0.875
0.85547
0.83398
0.83398
0.84375
0.91016
0.78906
0.32031
-0.0039063
-0.013672
0.11523
0.37109
0.58398
0.71484
0.86914
0.97461
1.0039
1.0195
1.0391
1.0293
1.0547
1.0645
1.0742
1.0293
1.0195
1.0293
1.0391
1.0547
1.0488
1.0254
1.0137
1.0352
1.0586
1.0391
1.0352
1.0547
1.0449
1.0586
1.084
1.0996
1.0645
1.0938
1.1152
1.1094
1.0703
1.0391
1.0254
0.98047
0.94922
0.94531
0.94531
0.95898
0.94531
0.91016
0.90039
0.87891
0.875
0.88867
0.84961
0.84375
0.83398
0.84375
0.85547
0.87891
0.89453
0.88867
0.87891
0.87891
0.90039
0.91406
0.9043
0.88867
0.9043
0.875
0.87891
0.88867
0.93555
0.91406
0.9043
0.91992
0.91406
0.92383
0.93555
0.91992
0.90039
0.875
0.84375
0.83984
0.86523
0.89453
0.85938
0.86914
0.85547
0.84961
0.875
0.875
0.85938
0.85547
0.93555
0.79492
0.33594
0.050781
0.03125
0.14063
0.33984
0.57031
0.71484
0.84961
0.92383
0.97461
0.99414
0.99023
0.98047
0.99023
1
1.0137
0.99414
1.0098
1.0137
0.99414
1.0195
1.0098
0.98438
0.96875
0.99023
0.97461
1
1.0195
1.0254
1.0098
0.99414
0.98438
1.0098
1.0137
1.0254
1.0098
0.99023
1.0098
1
0.96875
0.92969
0.91016
0.88867
0.89453
0.84961
0.86914
0.84961
0.875
0.84375
0.89453
0.95898
1.0547
1.084
1.0254
0.92969
1.0254
1.0703
1.1387
1.25
1.3535
1.3691
1.1895
0.99023
0.83008
0.75977
0.72461
0.73438
0.70508
0.68945
0.68945
0.72461
0.68555
0.66406
0.66406
0.68555
0.68945
0.67578
0.66016
0.66992
0.65039
0.625
0.61914
0.60938
0.60547
0.59961
0.60547
0.58008
0.58984
0.61523
0.60547
0.64063
0.67578
0.71484
0.75391
0.78906
0.83008
0.88477
0.91992
0.86914
0.9043
0.91016
0.91406
0.9043
0.91406
0.9043
0.91992
0.92383
0.93945
0.91992
0.91406
0.94531
0.91016
0.91406
0.9043
0.91992
0.88867
0.90039
0.93555
0.91016
0.90039
0.90039
0.89453
0.9043
0.90039
0.91016
0.88867
0.91016
0.90039
0.91406
0.89453
0.875
0.88477
0.88867
0.88477
0.91016
0.91406
0.9043
0.92383
0.91016
0.93555
0.91992
0.875
0.86914
0.91992
0.89453
0.88477
0.875
0.90039
0.87891
0.9043
0.91406
0.90039
0.875
0.96484
0.97461
0.39453
0.085938
0.070313
0.19531
0.43555
0.64453
0.77539
0.87891
0.94531
0.99023
1.0098
1.0039
1.0098
1.0195
1.0137
1.0254
1.0195
1.0547
1.0195
1.0293
1.0391
1
1.0098
1.0137
1
0.99414
1
1.0293
1.0391
1.0547
1.0352
1.0391
1.0254
1.0391
1.0586
1.0703
1.0488
1
1.0137
1.0137
0.98438
0.94531
0.94531
0.92383
0.9043
0.90039
0.87891
0.86523
0.88867
0.84961
0.86523
0.87891
0.89453
0.86914
0.875
0.86914
0.90039
0.89453
0.89453
0.87891
0.88477
0.90039
0.91016
0.92383
0.91016
0.89453
0.90039
0.90039
0.9043
0.92383
0.88867
0.91406
0.91406
0.90039
0.87891
0.9043
0.89453
0.87891
0.88477
0.88867
0.85547
0.86914
0.875
0.86914
0.88477
0.875
0.875
0.86914
0.875
0.83984
0.94922
0.65039
0.2207
0.050781
0.095703
0.2207
0.4707
0.66016
0.83008
0.92969
0.98438
0.99414
0.99023
1.0039
1.0137
0.99023
1.0137
1.0254
1.0195
1.0352
1.0098
1.0098
1.0352
1.0098
1.0137
1.0293
1.0039
0.99414
1.0039
1.0352
1.0352
1.0645
1.0391
1.0352
1.0449
1.0703
1.0586
1.0586
1.0586
1.0488
0.99023
0.96875
0.95508
0.93555
0.93555
0.92383
0.89453
0.88867
0.89453
0.91016
0.89453
0.87891
0.89453
0.86914
0.88867
0.91016
0.89453
0.88867
0.90039
0.89453
0.90039
0.875
0.86914
0.88477
0.90039
0.875
0.85938
0.85938
0.875
0.88477
0.87891
0.875
0.91016
0.88867
0.84961
0.875
0.875
0.88867
0.875
0.87891
0.85938
0.90039
0.89453
0.87891
0.83984
0.83008
0.86523
0.875
0.84961
0.83984
0.88867
0.94922
0.53906
0.089844
0.0097656
0.080078
0.23047
0.48438
0.67969
0.81445
0.92383
0.96875
1.0137
1.0137
0.99414
1.0195
1.0352
1.0137
1.0254
1.0137
1
1.0039
1.0195
1.0254
1.0195
1.0137
1.0254
1.0352
1.0137
1.0137
1.0137
1.0195
1.0352
1.0547
1.084
1.084
1.0742
1.0586
1.0254
1.0254
1.0137
1.0195
0.98047
0.96875
0.95508
0.95898
0.92383
0.91406
0.91016
0.92383
0.87891
0.84961
0.84961
0.86523
0.85938
0.86914
0.90039
0.89453
0.86914
0.87891
0.88867
0.88477
0.88867
0.87891
0.88867
0.875
0.875
0.85938
0.86914
0.85938
0.87891
0.88477
0.88867
0.875
0.90039
0.9043
0.88477
0.87891
0.90039
0.84375
0.83008
0.86523
0.86914
0.875
0.87891
0.84375
0.83398
0.83984
0.83398
0.89453
0.93945
0.97461
0.58984
0.14453
-0.058594
0.019531
0.18555
0.46484
0.66016
0.84961
0.95508
0.96875
0.98438
1.0098
1.0039
1.0391
1.0547
1
1.0137
1.0352
1.0391
1
1.0137
1.0293
1.0137
0.98438
1.0039
1.0195
1.0039
0.99023
1.0098
0.99023
1.0137
1.0254
1.0586
1.0703
1.0645
1.084
1.0488
1.0137
1.0137
0.99023
0.95508
0.94531
0.94531
0.94922
0.9043
0.89453
0.88477
0.875
0.875
0.87891
0.85938
0.875
0.88867
0.90039
0.87891
0.89453
0.88477
0.91992
0.91016
0.92383
0.90039
0.89453
0.87891
0.89453
0.90039
0.89453
0.91992
0.87891
0.90039
0.9043
0.90039
0.89453
0.91016
0.91406
0.91992
0.88867
0.85938
0.85547
0.88867
0.9043
0.875
0.83984
0.84961
0.86914
0.87891
0.85938
0.87891
0.91016
0.96484
0.65039
0.20117
-0.013672
0.070313
0.18945
0.43945
0.64453
0.78516
0.91992
0.96875
0.98438
0.99023
1.0039
1.0137
1.0195
1.0352
1.0391
1.0137
1.0039
0.98047
0.98438
0.99023
1
0.99023
0.99023
0.96875
0.99414
1.0098
0.98438
0.99414
0.98438
1.0039
1.0254
1.0391
1.0488
1.0586
1.0391
1.0254
0.98438
0.96875
0.96484
0.95898
0.93555
0.92383
0.94531
0.90039
0.87891
0.875
0.875
0.88477
0.85938
0.86914
0.85938
0.86523
0.86523
0.875
0.86523
0.89453
0.9043
0.85547
0.85938
0.84961
0.88477
0.88867
0.87891
0.875
0.91406
0.9043
0.91992
0.91016
0.88477
0.86914
0.86523
0.86914
0.86523
0.85547
0.87891
0.90039
0.875
0.85938
0.86914
0.875
0.84961
0.85547
0.91992
0.94531
0.45508
0.099609
0.060547
0.17578
0.35547
0.58008
0.75
0.875
0.91406
0.97461
0.96875
0.99023
1.0137
1.0254
1.0137
1.0254
1.0039
0.99023
1.0098
0.99414
0.96484
0.96484
0.97461
0.96875
1.0137
1.0098
1.0254
1
1.0254
0.99023
1.0137
1.0195
1.0391
1.0293
1.0195
1.0254
1.0391
1.0195
1
0.98438
0.94922
0.90039
0.88867
0.88477
0.875
0.89453
0.9043
0.87891
0.85938
0.86523
0.86914
0.86523
0.85938
0.86914
0.84961
0.86523
0.86914
0.89453
0.91992
0.88477
0.85547
0.85938
0.85938
0.85547
0.89453
0.9043
0.87891
0.875
0.91016
0.875
0.90039
0.91406
0.91992
0.88867
0.87891
0.84961
0.86523
0.85547
0.86914
0.85938
0.85547
0.85547
0.86914
0.875
0.88477
0.86914
0.86914
0.91406
0.76953
0.33984
0.060547
0.054688
0.16602
0.39063
0.5957
0.73047
0.85547
0.93945
0.95508
0.96875
0.98438
1.0137
1.0195
0.98047
0.97461
0.99023
0.98438
0.99023
1
1.0254
1.0039
0.99023
0.99414
1.0137
1.0039
0.99023
1.0098
1.0254
1.0137
1.0137
1.0254
1.0586
1.0801
1.0547
1.0293
1.0195
0.99023
0.99414
0.96875
0.93945
0.91992
0.91406
0.9043
0.87891
0.85547
0.86523
0.88867
0.85938
0.84961
0.86523
0.85938
0.84961
0.83984
0.875
0.83984
0.84961
0.85547
0.875
0.88477
0.875
0.86914
0.875
0.85547
0.86523
0.86523
0.875
0.875
0.88477
0.90039
0.91406
0.91406
0.86523
0.82031
0.83008
0.83398
0.83008
0.84961
0.85938
0.83008
0.86523
0.875
0.85547
0.83008
0.86523
0.90039
0.50586
0.095703
0.019531
0.10547
0.24023
0.49023
0.66406
0.81055
0.88477
0.93945
0.99414
1.0137
0.99023
0.99023
0.98047
0.96484
0.96484
0.99023
0.99414
1.0039
1.0137
1.0039
1.0098
0.96875
0.98438
0.99023
0.95508
0.89453
0.875
0.86523
0.875
0.92383
1.0195
1.0801
1.0996
1.1191
1.1289
1.0996
1.084
1.0547
1.0391
0.98438
0.99023
0.96875
0.91016
0.91016
0.90039
0.86914
0.86523
0.87891
0.90039
0.90039
0.90039
0.9043
0.90039
0.91992
0.92383
0.89453
0.88867
0.87891
0.86523
0.90039
0.88867
0.87891
0.91016
0.92383
0.87891
0.875
0.88477
0.89453
0.90039
0.89453
0.91992
0.91016
0.89453
0.875
0.89453
0.85938
0.85547
0.85938
0.875
0.86914
0.88867
0.86914
0.875
0.875
0.87891
0.92383
0.95898
0.46484
0.064453
-0.0097656
0.099609
0.26953
0.50586
0.67969
0.83008
0.94531
0.99023
0.99023
1.0137
1.0137
1
1
0.99414
1.0098
0.99414
1.0098
1.0039
1.0293
1.0098
0.99414
0.98438
0.99023
0.99023
1
0.99414
1.0254
1.0391
1.0391
1.0137
1.0098
1.0547
1.0645
1.0391
1.0195
1.0254
1.0352
0.99414
0.95508
0.93555
0.90039
0.87891
0.875
0.86914
0.85938
0.875
0.86914
0.86523
0.86523
0.83984
0.83398
0.84961
0.86523
0.87891
0.88477
0.86914
0.87891
0.84961
0.875
0.86914
0.88477
0.86914
0.85938
0.84961
0.86914
0.88867
0.84375
0.85547
0.875
0.86914
0.90039
0.88867
0.85547
0.82422
0.86914
0.875
0.84961
0.84375
0.84961
0.81055
0.84375
0.86523
0.85547
0.84961
0.89453
0.93555
0.49414
0.13477
0.054688
0.11133
0.29102
0.53906
0.70898
0.85938
0.9043
0.95508
0.97461
0.99023
0.97461
0.96875
0.99023
0.98438
0.99414
0.97461
0.96484
0.99023
0.95898
0.94531
0.96875
0.98047
0.96484
0.94922
0.97461
0.96875
0.98438
0.99414
1.0039
0.98438
1.0137
1.0254
1.0039
0.98438
0.98047
0.97461
0.98047
0.94531
0.92383
0.88477
0.89453
0.875
0.88867
0.87891
0.875
0.84375
0.82031
0.83398
0.83008
0.84375
0.83008
0.85938
0.85938
0.875
0.88477
0.86523
0.83008
0.83398
0.83398
0.875
0.85547
0.86914
0.875
0.875
0.86914
0.86523
0.88867
0.90039
0.9043
0.87891
0.88477
0.85938
0.84961
0.86914
0.85547
0.84375
0.85547
0.81445
0.83008
0.83398
0.83008
0.84961
0.86523
0.88477
0.93945
0.65039
0.24023
0.070313
0.15039
0.26953
0.48047
0.66406
0.7793
0.89453
0.95508
0.99023
1.0098
0.96875
0.96484
0.98438
0.96875
0.96875
0.96484
0.98047
0.98047
0.98438
0.96875
0.98438
0.98047
0.99023
0.96484
0.96875
0.98438
0.98047
1.0039
1.0137
0.99414
1.0254
1.0098
1.0137
1.0195
1.0137
1.0098
1
0.97461
0.94531
0.94922
0.91016
0.87891
0.88477
0.88867
0.875
0.86523
0.85547
0.88477
0.85938
0.84961
0.86523
0.9043
0.91992
0.83984
0.83398
0.85938
0.86914
0.86523
0.90039
0.91016
0.87891
0.86914
0.84961
0.86914
0.89453
0.88867
0.90039
0.88867
0.9043
0.90039
0.88477
0.84375
0.83984
0.875
0.90039
0.875
0.84961
0.84375
0.84961
0.84375
0.86523
0.86523
0.87891
0.92383
0.75977
0.29102
0.054688
0.080078
0.17969
0.39063
0.59961
0.74414
0.86523
0.95898
0.96875
1
0.99414
1.0254
1.0137
1.0137
0.99414
0.98047
0.97461
0.98047
0.97461
0.99414
1
1.0195
1.0391
1.0137
1.0039
0.99023
1.0137
1.0098
1.0195
1.0391
1.0547
1.0586
1.0703
1.0703
1.0801
1.0391
1.0098
0.97461
0.96875
0.94922
0.94531
0.92383
0.91016
0.88867
0.87891
0.88477
0.875
0.85547
0.84961
0.85547
0.89453
0.9043
0.84961
0.85938
0.875
0.86914
0.86914
0.875
0.86523
0.875
0.88867
0.9043
0.875
0.86523
0.85938
0.87891
0.88477
0.90039
0.88867
0.90039
0.87891
0.86523
0.86914
0.9043
0.91016
0.83984
0.84961
0.83008
0.84375
0.85547
0.85938
0.83984
0.88477
0.91992
0.48438
0.10547
0.054688
0.125
0.24609
0.46484
0.66406
0.82031
0.91406
0.95508
0.98438
0.99023
1.0137
1.0293
1.0645
1.0137
0.98047
0.99023
0.99023
0.99023
0.98047
0.99414
0.99414
1.0137
1.0352
1.0391
1.0098
1.0195
1
1.0195
1.0352
1.0742
1.0586
1.0547
1.0391
1.0645
1.0488
1.0293
1.0391
1.0137
0.98047
0.93945
0.91406
0.88477
0.88477
0.87891
0.875
0.875
0.88477
0.875
0.89453
0.85938
0.85547
0.86523
0.875
0.87891
0.875
0.86523
0.88477
0.89453
0.9043
0.89453
0.875
0.88477
0.875
0.88477
0.87891
0.90039
0.86523
0.85938
0.9043
0.91406
0.90039
0.91992
0.88477
0.83398
0.84375
0.88477
0.87891
0.88867
0.84375
0.84961
0.83008
0.85547
0.86523
0.86914
0.83398
0.92969
0.53906
0.10547
-0.0039063
0.095703
0.24023
0.45508
0.66016
0.80469
0.91016
0.94922
0.98438
0.99023
1
0.98047
0.97461
0.98047
0.96875
0.97461
0.96875
0.98047
0.96875
0.96875
0.99414
1.0098
0.96484
0.96875
0.98047
0.96875
0.96484
0.98047
0.99023
1
0.99023
1.0195
1.0391
1
0.99414
0.97461
0.94531
0.92969
0.91992
0.9043
0.88477
0.87891
0.85938
0.87891
0.86914
0.84375
0.83984
0.86914
0.81445
0.83008
0.84961
0.82422
0.82031
0.83984
0.875
0.88477
0.85547
0.83008
0.84375
0.84961
0.85547
0.83984
0.875
0.85547
0.84961
0.89453
0.90039
0.86523
0.88477
0.88867
0.86523
0.83398
0.81445
0.84375
0.84961
0.82422
0.83008
0.85547
0.84375
0.83008
0.84375
0.85547
0.82422
0.85938
0.92969
0.66016
0.2207
0.070313
0.125
0.26563
0.48047
0.67578
0.81055
0.85938
0.91016
0.94922
0.96484
0.98438
0.99023
0.98438
1
0.97461
0.95508
0.99414
0.96875
0.95898
0.96484
0.92969
0.94531
0.95508
0.96484
0.95898
0.96875
0.95508
0.98438
1
1.0137
1.0254
1.0137
1.0098
1.0293
1.0391
1.0039
0.96484
0.94922
0.92969
0.91992
0.9043
0.87891
0.86523
0.85547
0.87891
0.875
0.90039
0.875
0.89453
0.86914
0.875
0.83984
0.84375
0.83984
0.84961
0.85547
0.875
0.86523
0.88477
0.87891
0.91016
0.90039
0.88867
0.88477
0.90039
0.91016
0.90039
0.875
0.83984
0.83398
0.85938
0.88477
0.91016
0.85547
0.86523
0.875
0.83008
0.85547
0.84375
0.84961
0.85547
0.92969
0.93945
0.41992
0.099609
0.089844
0.20508
0.39453
0.60938
0.75391
0.85938
0.92969
0.96875
0.99023
1.0195
1.0254
1.0352
1.0039
1.0137
1.0293
0.99414
0.96875
0.99023
0.99023
0.99023
0.97461
0.99414
0.99414
0.99023
1
0.99023
1.0098
1.0195
1.0254
1.0195
1.0391
1.0449
1.0547
1.0586
1.0391
1.0195
1
0.95898
0.93555
0.91992
0.91406
0.91992
0.91016
0.875
0.875
0.89453
0.9043
0.84375
0.84961
0.83984
0.85938
0.875
0.87891
0.84961
0.85938
0.875
0.88867
0.90039
0.88867
0.86523
0.86914
0.87891
0.88867
0.85938
0.84961
0.86523
0.875
0.92969
0.91992
0.9043
0.85547
0.86523
0.86914
0.84961
0.85938
0.84961
0.84375
0.83984
0.84375
0.85938
0.88477
0.875
0.86914
0.90039
0.63477
0.20508
0.060547
0.11523
0.2207
0.42578
0.64453
0.81055
0.91016
0.95898
0.99414
0.99023
1.0137
1.0039
1.0098
1.0039
1
1
1.0137
1.0137
1.0293
1.0391
1.0137
1.0254
1.0391
1.0254
1
0.99414
1.0195
1.0391
1.0586
1.084
1.0801
1.084
1.0547
1.0645
1.0488
1.0352
1.0098
1
0.99023
0.98438
0.96484
0.93945
0.90039
0.89453
0.875
0.86914
0.87891
0.875
0.87891
0.89453
0.90039
0.87891
0.875
0.86914
0.88867
0.875
0.88477
0.875
0.89453
0.89453
0.90039
0.92383
0.87891
0.84961
0.89453
0.89453
0.90039
0.875
0.88867
0.90039
0.88477
0.875
0.89453
0.9043
0.87891
0.84375
0.84961
0.86914
0.86523
0.86914
0.87891
0.88867
0.85938
0.9043
0.6543
0.21094
0
0.044922
0.16602
0.39063
0.59961
0.77539
0.9043
0.92383
0.94922
0.98438
1.0039
0.99414
0.98047
1
1.0039
0.99414
0.99023
0.99414
1.0039
0.99414
0.99023
0.99414
0.99414
1
1.0098
1.0039
1.0254
1.0098
1.0352
1.0391
1.0195
1.0039
1.0137
1.0391
1.0586
1.0449
1.0137
0.95898
0.93555
0.91992
0.89453
0.90039
0.88477
0.87891
0.89453
0.86914
0.84961
0.86523
0.84961
0.86914
0.85547
0.86914
0.84961
0.85938
0.875
0.90039
0.875
0.86523
0.88477
0.84961
0.86523
0.875
0.86914
0.86523
0.86914
0.82031
0.83984
0.85547
0.85547
0.875
0.88867
0.85547
0.82422
0.80469
0.82422
0.83008
0.81445
0.80469
0.82422
0.83398
0.84961
0.82422
0.84375
0.83984
0.90039
0.74414
0.30469
-0.0039063
0.041016
0.14453
0.38477
0.5957
0.73438
0.85938
0.9043
0.92969
0.94531
0.96875
0.97461
1
0.97461
0.98047
0.96875
0.97461
0.97461
0.99023
0.98438
1
0.98438
1.0039
1.0098
0.95508
0.93945
0.93555
0.96875
0.96875
0.96875
1.0039
1.0293
0.99023
0.99414
0.96875
0.97461
0.94922
0.93945
0.9043
0.91992
0.89453
0.90039
0.86523
0.85938
0.875
0.85547
0.84961
0.84961
0.82422
0.79492
0.82422
0.81055
0.83008
0.83984
0.84961
0.875
0.87891
0.82422
0.82422
0.83008
0.84375
0.83984
0.86523
0.86914
0.875
0.86914
0.90039
0.86523
0.875
0.85938
0.86914
0.82422
0.84961
0.875
0.88867
0.84961
0.81445
0.83398
0.80469
0.82422
0.84961
0.85938
0.85547
0.93945
0.70508
0.29492
0.085938
0.14063
0.24609
0.48047
0.63477
0.76563
0.83984
0.92969
0.99414
1
0.96875
0.96484
0.96875
0.96875
0.94922
0.96875
0.96875
0.99414
1
0.97461
0.99023
1.0137
0.99414
0.95898
0.95508
0.96484
0.95508
0.96484
0.97461
0.99414
1.0137
1.0098
1.0137
0.99414
1
1.0039
0.99023
0.98047
0.95508
0.93555
0.93555
0.91992
0.875
0.86914
0.84961
0.84375
0.83984
0.85938
0.84961
0.87891
0.88477
0.86914
0.85938
0.86914
0.86914
0.87891
0.875
0.88867
0.87891
0.90039
0.88867
0.90039
0.88477
0.89453
0.90039
0.875
0.89453
0.9043
0.91406
0.88867
0.85938
0.84961
0.88477
0.91016
0.90039
0.89453
0.86914
0.86914
0.85938
0.85547
0.86523
0.84961
0.95508
0.78906
0.32422
0.050781
0.089844
0.19531
0.41602
0.60547
0.75977
0.87891
0.94922
0.98047
1.0039
1.0137
0.99414
1.0137
1.0293
1.0039
0.98438
0.98438
1.0039
1.0195
1.0488
1.0586
1.0098
1.0352
1
1.0039
1.0254
1.0449
1.0137
1.0254
1.0352
1.0547
1.0586
1.0801
1.0703
1.0449
1.0449
1.0488
0.99023
0.98438
0.95898
0.93555
0.94922
0.88867
0.91016
0.88477
0.86523
0.84961
0.85547
0.84961
0.86523
0.86914
0.89453
0.875
0.875
0.87891
0.875
0.86914
0.85938
0.86914
0.88477
0.87891
0.89453
0.90039
0.90039
0.88477
0.88477
0.91406
0.9043
0.89453
0.88867
0.84375
0.85938
0.88477
0.875
0.88477
0.86523
0.90039
0.85938
0.85547
0.86914
0.84961
0.86914
0.91406
0.60938
0.17578
0.015625
0.099609
0.24609
0.46094
0.63477
0.78516
0.88477
0.95898
1.0039
0.99023
1
1.0039
1.0293
1.0195
1.0352
1.0293
1.0254
1.0293
1.0391
0.98438
1.0098
1.0137
1.0137
1.0098
1.0195
1.0254
1.0195
1.0488
1.0449
1.0801
1.0898
1.0703
1.0586
1.0547
1.0449
1.0488
1.0254
1.0098
0.98438
0.96875
0.94531
0.93945
0.92383
0.87891
0.84961
0.85547
0.85547
0.88477
0.86523
0.875
0.88477
0.87891
0.90039
0.92383
0.93555
0.88867
0.91016
0.90039
0.91992
0.90039
0.90039
0.875
0.86914
0.88477
0.88477
0.9043
0.91992
0.92969
0.94531
0.94531
0.95508
0.83984
0.82422
0.86914
0.88477
0.90039
0.87891
0.875
0.87891
0.90039
0.89453
0.90039
0.85547
0.93555
0.7793
0.34961
0.044922
0.03125
0.15625
0.41602
0.58398
0.74414
0.86914
0.95898
1.0195
1.0391
1.0098
0.99414
1
1.0195
1
0.99414
1.0254
1.0195
1.0293
1.0137
1.0391
1.0586
1.0137
0.98047
1
1.0039
1.0098
1.0039
1.0352
1.0293
1.0254
1.0195
1.0645
1.0703
1.0137
1.0137
1.0098
1.0195
0.96875
0.92383
0.91992
0.91016
0.90039
0.88867
0.86914
0.85938
0.84961
0.875
0.83984
0.86523
0.85547
0.86523
0.87891
0.91992
0.89453
0.86914
0.86523
0.85547
0.875
0.88477
0.89453
0.88477
0.84961
0.85938
0.875
0.88477
0.91406
0.91016
0.90039
0.87891
0.88867
0.87891
0.86523
0.85547
0.86914
0.86914
0.85938
0.84375
0.875
0.875
0.88477
0.84961
0.85938
0.92969
0.93555
0.41602
0.13477
0.10547
0.18945
0.42578
0.5957
0.73438
0.875
0.96484
0.99023
0.98047
0.99414
1.0137
1.0039
1.0098
0.97461
0.98047
0.99023
0.97461
0.96875
0.99023
0.98438
0.99023
0.96875
0.99023
0.98047
0.96875
0.98047
0.98438
0.99023
1.0195
1.0391
1.0137
1.0098
1.0098
0.99414
0.99414
0.96875
0.96484
0.96875
0.94531
0.92969
0.875
0.875
0.875
0.91016
0.86914
0.86523
0.87891
0.85938
0.84961
0.86523
0.84375
0.83984
0.85938
0.875
0.875
0.87891
0.86523
0.84961
0.85547
0.87891
0.88477
0.84961
0.87891
0.9043
0.89453
0.88477
0.91016
0.91406
0.88867
0.85938
0.84961
0.83984
0.85938
0.85547
0.875
0.875
0.87891
0.84961
0.86914
0.84961
0.83984
0.91016
0.94531
0.48047
0.12109
0.085938
0.18555
0.35547
0.55469
0.73438
0.85938
0.93945
0.94531
0.99023
1
1.0195
1.0039
1.0195
0.99414
0.98047
0.96875
0.99023
0.98438
0.99023
0.98438
0.99414
0.98438
0.98047
0.99023
1
1.0137
1.0254
1.0098
1.0039
1.0391
1.0391
1.0449
1.0391
1.0137
1.0039
1.0098
0.98438
0.95898
0.96875
0.94922
0.9043
0.88867
0.875
0.875
0.87891
0.85547
0.85938
0.85547
0.875
0.86914
0.84375
0.83984
0.85938
0.84961
0.85938
0.84961
0.875
0.90039
0.87891
0.84375
0.85547
0.84961
0.88867
0.85938
0.86914
0.89453
0.9043
0.88477
0.88477
0.85938
0.84961
0.82422
0.83398
0.84961
0.84375
0.86914
0.83008
0.81445
0.80469
0.82422
0.83398
0.86914
0.6543
0.21484
0.03125
0.11133
0.2207
0.41602
0.61914
0.78906
0.875
0.95508
1
1.0293
1.0352
1.0391
1.0547
1.0391
1.0098
1.0254
1.0293
1.0137
1.0137
1
1.0137
1.0195
1.0254
1.0098
1.0137
0.98047
1.0098
1.0391
1.0449
1.0391
1.0547
1.0645
1.084
1.0703
1.0742
1.0586
1.0586
1.0137
0.99023
0.96484
0.93945
0.91406
0.92383
0.93945
0.91016
0.91406
0.9043
0.87891
0.85938
0.90039
0.87891
0.9043
0.88867
0.91016
0.91016
0.91992
0.86914
0.89453
0.9043
0.88867
0.9043
0.88477
0.90039
0.88867
0.9043
0.9043
0.90039
0.89453
0.91992
0.91992
0.87891
0.84961
0.86523
0.88867
0.89453
0.86523
0.84961
0.85938
0.875
0.90039
0.89453
0.875
0.93945
0.95508
0.43945
0.044922
0.0058594
0.11133
0.29102
0.51953
0.70898
0.86914
0.93555
0.98438
1.0488
1.0195
0.99414
1.0098
1.0039
1.0254
1.0039
1.0137
1.0098
1.0254
1.0391
1.0547
1.0293
1.0137
1.0098
1.0293
1.0195
1.0195
1.0352
1.0645
1.0547
1.0703
1.0742
1.0703
1.0645
1.0488
1.0547
1.0137
1.0137
1.0098
0.98047
0.93555
0.94922
0.92969
0.88477
0.875
0.875
0.88477
0.875
0.88867
0.9043
0.875
0.87891
0.88867
0.9043
0.88867
0.875
0.90039
0.88477
0.88867
0.875
0.9043
0.86914
0.88477
0.84961
0.875
0.85547
0.85938
0.875
0.90039
0.90039
0.91406
0.86523
0.87891
0.84375
0.83008
0.84961
0.83398
0.82422
0.84375
0.84961
0.85547
0.83984
0.83398
0.85938
0.84961
0.92383
0.53516
0.14453
0.041016
0.11133
0.27539
0.49414
0.66016
0.81445
0.90039
0.94922
0.98438
0.99023
0.96875
0.99414
1
0.96875
0.97461
0.99023
0.99414
0.96875
0.99414
0.95898
0.96484
0.94531
0.95898
0.94531
0.96875
0.98438
1.0039
1.0352
1.0098
1
1.0098
0.99414
1.0039
0.97461
0.96484
0.94922
0.96875
0.94531
0.93945
0.91406
0.90039
0.89453
0.88867
0.88477
0.90039
0.84961
0.86914
0.84961
0.85547
0.875
0.88477
0.88867
0.82422
0.83398
0.84375
0.86914
0.84375
0.84961
0.875
0.9043
0.88867
0.90039
0.85547
0.84961
0.84961
0.87891
0.89453
0.90039
0.875
0.875
0.90039
0.86914
0.84961
0.86523
0.85547
0.83984
0.85547
0.84961
0.875
0.86914
0.875
0.87891
0.9043
0.93555
0.60547
0.23438
0.10547
0.18945
0.31055
0.50586
0.68945
0.83398
0.91406
0.94922
0.98438
0.99414
0.96875
0.99023
1.0039
1.0098
0.98438
1.0098
0.97461
0.99023
0.96875
0.96875
0.96875
0.98047
1.0195
1.0254
0.98047
1
1.0098
1
1.0098
0.99414
1
0.99023
1.0293
1.0137
1.0137
1.0195
1
0.96484
0.93555
0.91406
0.91016
0.88867
0.89453
0.85938
0.875
0.88477
0.88477
0.88477
0.86914
0.83008
0.85547
0.84375
0.86914
0.875
0.86914
0.875
0.89453
0.9043
0.92383
0.88867
0.86523
0.86523
0.86523
0.86914
0.84961
0.875
0.87891
0.91016
0.92969
0.89453
0.84961
0.83984
0.85547
0.84961
0.82422
0.82031
0.82422
0.83984
0.83008
0.86523
0.83398
0.83398
0.87891
0.91406
0.56055
0.19531
0.070313
0.13086
0.24609
0.48047
0.68555
0.79492
0.85938
0.92383
0.96875
0.96875
0.98438
0.98047
1
0.97461
0.98047
0.95898
0.98438
0.98047
0.98438
0.99023
0.99023
0.98047
1.0039
1.0098
1
0.99023
1.0039
1.0195
1.0391
1.0586
1.0137
1.0391
1.0352
1.0254
1.0352
1.0137
0.99414
0.98047
0.94531
0.93945
0.91992
0.90039
0.86914
0.90039
0.86523
0.86914
0.84961
0.84961
0.84375
0.83984
0.86523
0.875
0.87891
0.85547
0.84961
0.86523
0.91016
0.90039
0.85938
0.83984
0.85547
0.84961
0.85938
0.84961
0.86914
0.85938
0.85547
0.88867
0.89453
0.88867
0.85547
0.84375
0.86523
0.88867
0.86914
0.85547
0.84961
0.83008
0.84961
0.85938
0.84961
0.83984
0.87891
0.90039
0.42969
0.050781
0.0058594
0.11523
0.2793
0.52539
0.67969
0.82422
0.9043
0.96484
0.98047
0.98438
0.96875
0.98438
0.99023
1
1.0137
0.99414
1
1.0098
1.0137
0.98438
1
1.0137
0.99414
0.99023
1.0137
1.0254
1.0195
1.0449
1.0586
1.0488
1.0801
1.0391
1.0352
1.0391
1.0488
1.0547
0.98047
0.96484
0.95508
0.93555
0.92969
0.9043
0.88867
0.91406
0.875
0.84375
0.83008
0.84961
0.84961
0.875
0.86914
0.87891
0.88867
0.89453
0.86523
0.83398
0.83984
0.85938
0.86914
0.87891
0.875
0.88867
0.86914
0.88477
0.90039
0.86914
0.83398
0.83008
0.85547
0.84961
0.875
0.90039
0.91016
0.84961
0.84375
0.875
0.85547
0.82422
0.83984
0.83398
0.84375
0.84961
0.85938
0.83398
0.83008
0.875
0.91992
0.53516
0.10547
-0.0039063
0.070313
0.25977
0.48438
0.66016
0.81055
0.91016
0.93555
0.99023
1.0039
0.96484
0.96875
0.95508
0.94922
0.95898
0.95508
0.98438
0.99023
0.96484
0.96875
0.94922
0.95508
0.96875
0.97461
1
1.0098
0.99414
1.0137
1
1.0195
1
1.0039
0.99023
1.0039
1.0137
1.0293
0.97461
0.98047
0.91992
0.93555
0.89453
0.875
0.86523
0.86914
0.875
0.89453
0.86914
0.85547
0.875
0.86914
0.85547
0.87891
0.84961
0.86914
0.875
0.86523
0.87891
0.875
0.89453
0.875
0.88867
0.86914
0.875
0.875
0.85938
0.84961
0.86914
0.88867
0.90039
0.88867
0.88477
0.86914
0.875
0.84375
0.83008
0.83984
0.86914
0.875
0.84961
0.84961
0.85938
0.86914
0.88477
0.90039
0.86914
0.93555
0.53906
0.16992
0.076172
0.16016
0.30469
0.55469
0.70508
0.83398
0.92969
0.96875
0.98438
0.97461
1
1.0098
0.97461
0.98047
0.97461
1
1.0137
0.99023
1
0.99023
0.97461
0.99023
0.98047
0.97461
0.98047
0.97461
1.0195
1.0039
1.0293
1.0391
1.0391
1.0254
1.0098
0.99023
1.0137
0.99023
0.96875
0.94922
0.94531
0.95508
0.91992
0.89453
0.90039
0.875
0.85938
0.875
0.84961
0.875
0.85938
0.86523
0.87891
0.88867
0.85547
0.88867
0.9043
0.92969
0.92383
0.92969
0.91016
0.88867
0.90039
0.9043
0.88867
0.875
0.87891
0.875
0.90039
0.88477
0.91406
0.90039
0.91016
0.90039
0.84375
0.85547
0.86523
0.83984
0.85547
0.85938
0.84961
0.85938
0.84961
0.86523
0.86914
0.85547
0.91016
0.92383
0.375
0.060547
0.041016
0.15625
0.35938
0.56445
0.7207
0.83984
0.92969
1
1.0449
1.0488
0.96875
0.99023
0.99414
0.98438
0.96875
0.99023
0.99414
1.0098
0.99414
1.0352
1.0547
0.99414
0.98047
1.0039
1.0098
1.0195
1.0586
1.0547
1.0742
1.0645
1.0547
1.0586
1.0645
1.0488
1.0547
1.0254
1.0195
1
0.98047
0.92969
0.91992
0.9043
0.9043
0.88477
0.88867
0.875
0.88477
0.86914
0.86914
0.875
0.89453
0.91992
0.87891
0.88867
0.90039
0.91406
0.89453
0.90039
0.91406
0.91992
0.91992
0.94922
0.9043
0.91992
0.90039
0.91992
0.90039
0.91406
0.9043
0.91016
0.9043
0.91016
0.88867
0.86523
0.85547
0.86523
0.84961
0.84375
0.84961
0.82422
0.83984
0.83008
0.84375
0.81445
0.88867
0.74023
0.26563
-0.019531
0.019531
0.13086
0.36523
0.57422
0.75
0.875
0.95508
0.99414
1.0391
1.0293
1.0254
1.0195
1.0645
1.0547
1.0586
1.0742
1.0996
1.1035
1.0488
1.0547
1.0391
1.0098
1.0254
1.0391
1.0547
1.0586
1.0801
1.0742
1.0547
1.0742
1.0449
1.0352
1.0488
1.0586
1.0449
1.0352
1.0254
1.0547
1.0352
1.0098
0.95508
0.94531
0.91992
0.88867
0.87891
0.875
0.87891
0.875
0.85938
0.83984
0.86914
0.85547
0.86914
0.82422
0.83984
0.83398
0.85547
0.86523
0.875
0.83008
0.84961
0.83398
0.83008
0.84961
0.83398
0.82422
0.83398
0.83984
0.82422
0.87891
0.85547
0.84961
0.86914
0.875
0.84375
0.84961
0.83984
0.86914
0.85547
0.86914
0.85547
0.84961
0.86523
0.89453
0.9043
0.85938
0.84961
0.93555
0.58008
0.14453
0.041016
0.11133
0.25977
0.5
0.68945
0.83984
0.91016
0.93555
0.96875
0.99023
0.95508
0.96484
0.97461
0.99023
0.99414
0.96484
0.94531
0.93555
0.94531
0.94922
0.94531
0.94922
0.95508
0.95898
0.96875
0.98047
0.96484
0.96875
0.95898
0.96875
0.98047
0.99414
0.99023
0.99023
1.0195
1.0254
0.96484
0.94922
0.91016
0.89453
0.86914
0.90039
0.86523
0.85547
0.875
0.85938
0.86523
0.875
0.85547
0.85547
0.84961
0.875
0.875
0.85938
0.87891
0.9043
0.91406
0.86914
0.86914
0.875
0.88477
0.875
0.88477
0.85938
0.88867
0.87891
0.90039
0.88477
0.87891
0.875
0.89453
0.88477
0.86523
0.83008
0.83984
0.84375
0.875
0.87891
0.86523
0.875
0.84961
0.84961
0.84375
0.875
0.84375
0.93555
0.79492
0.38086
0.089844
0.125
0.19531
0.41992
0.60938
0.75
0.875
0.94922
0.98438
0.96875
0.95898
0.98047
0.95898
0.97461
0.96875
0.95898
0.98047
0.98047
0.94922
0.95898
0.96875
0.98047
0.99023
1.0039
1.0137
0.95898
0.96875
0.95898
0.99023
1.0098
1.0137
1.0195
0.99414
1.0293
1.0137
1.0039
0.99023
0.96875
0.95508
0.92969
0.91406
0.91992
0.87891
0.875
0.83984
0.85938
0.875
0.86914
0.85938
0.89453
0.91406
0.91992
0.90039
0.89453
0.91992
0.93945
0.91992
0.90039
0.91992
0.92969
0.92383
0.91992
0.92969
0.93945
0.95508
0.94531
0.96875
0.92383
0.90039
0.88867
0.90039
0.88477
0.88867
0.85547
0.84961
0.875
0.87891
0.86914
0.85938
0.84961
0.85547
0.84961
0.85938
0.86914
0.84375
0.88477
0.9043
0.375
0.050781
0.035156
0.17969
0.35938
0.56445
0.73438
0.86523
0.92383
0.96484
0.98438
0.99023
1
0.99023
0.99414
0.98438
1.0098
1.0137
1.0039
0.99023
1.0098
1
1.0039
0.98438
0.99023
1
0.99023
1.0137
1.0352
1.0391
1.0195
1.0391
1.0352
1.0586
1.0391
1.0547
1.0391
1.0254
1.0137
1
0.95508
0.92383
0.89453
0.88477
0.86914
0.86523
0.84961
0.89453
0.91406
0.88867
0.85938
0.87891
0.875
0.85938
0.86523
0.875
0.86523
0.88477
0.89453
0.86914
0.88477
0.88867
0.89453
0.91406
0.89453
0.86523
0.87891
0.90039
0.88477
0.88867
0.88477
0.90039
0.91016
0.89453
0.87891
0.86914
0.86523
0.86914
0.85938
0.84961
0.86914
0.88867
0.85938
0.86914
0.86523
0.83984
0.83398
0.9043
0.50586
0.099609
0.041016
0.11523
0.25586
0.49414
0.66992
0.82031
0.91016
0.98047
1.0039
1.0137
1.0254
1.0293
1.0254
1.0137
1.0137
1.0039
1
0.99414
1.0137
1.0293
1.0449
1.0098
1.0039
1.0098
1.0488
1.0098
1.0137
1.0195
1.0352
1.0449
1.0645
1.0352
1.0488
1.0449
1.0547
1.0352
1.0195
0.97461
0.96484
0.93945
0.92969
0.89453
0.85938
0.86523
0.84961
0.85547
0.86914
0.85547
0.84961
0.84375
0.84961
0.83398
0.84961
0.85547
0.87891
0.89453
0.85938
0.86914
0.85547
0.85547
0.85938
0.86914
0.86523
0.87891
0.89453
0.85938
0.84375
0.83008
0.83984
0.86523
0.87891
0.85547
0.84961
0.86523
0.875
0.80469
0.82422
0.82031
0.83398
0.80469
0.82422
0.83984
0.84961
0.82422
0.83008
0.82031
0.81055
0.91016
0.55078
0.11523
-0.0097656
0.085938
0.26563
0.44922
0.61914
0.76563
0.85547
0.91992
0.96484
0.94531
0.93945
0.94922
0.95898
0.98047
0.95508
0.93555
0.94531
0.95508
0.95508
0.93945
0.95508
0.94531
0.95508
0.95898
0.93945
0.94531
0.95508
0.96484
0.99023
0.98438
1.0098
0.99023
1
0.98438
0.99023
0.95898
0.95508
0.91992
0.92969
0.91992
0.91016
0.88867
0.84961
0.83398
0.84961
0.82422
0.83008
0.83398
0.83008
0.83984
0.875
0.89453
0.85938
0.85547
0.84961
0.83398
0.83008
0.85938
0.84961
0.86523
0.86914
0.85938
0.85938
0.85547
0.875
0.9043
0.875
0.86914
0.87891
0.90039
0.87891
0.85547
0.85547
0.83008
0.84375
0.85938
0.87891
0.85547
0.84375
0.84961
0.85938
0.85547
0.83984
0.83398
0.85938
0.93555
0.75
0.33008
0.085938
0.14063
0.2207
0.41016
0.5957
0.74023
0.87891
0.9043
0.94531
0.94922
0.97461
0.99414
1
1.0039
0.96875
0.97461
0.96484
0.97461
0.98438
0.96484
0.95898
0.98047
0.99023
0.97461
0.98047
0.99023
0.97461
0.96875
0.97461
0.99023
0.98438
1.0098
1.0195
1.0391
1.0098
0.99414
0.96875
0.94922
0.92969
0.94531
0.89453
0.86914
0.875
0.875
0.84961
0.83008
0.83984
0.83398
0.87891
0.84375
0.81055
0.82031
0.85547
0.86914
0.84961
0.83984
0.85547
0.86523
0.87891
0.90039
0.84375
0.85938
0.83398
0.85938
0.875
0.85938
0.82422
0.82422
0.83398
0.85938
0.88867
0.90039
0.83008
0.83008
0.84961
0.85938
0.85547
0.84961
0.84375
0.85938
0.86523
0.89453
0.91406
0.86523
0.85547
0.96875
0.75391
0.26953
0.03125
0.099609
0.20508
0.41016
0.625
0.79883
0.90039
0.95508
1.0039
1.0391
1.0449
1.0137
1.0098
0.99023
1
0.98047
0.99023
0.96875
1
1.0098
0.98438
1
1.0293
1.0098
0.99023
1.0098
1.0391
1.0137
1.0352
1.0391
1.0352
1.0488
1.0801
1.1035
1.084
1.0742
1.0547
1.0645
1.0195
0.97461
0.94531
0.94531
0.95898
0.93555
0.91406
0.87891
0.85938
0.875
0.88477
0.83008
0.82422
0.83984
0.84375
0.84375
0.84961
0.85547
0.83008
0.82031
0.84375
0.82031
0.81055
0.80469
0.81055
0.79883
0.80469
0.7793
0.78906
0.79883
0.81055
0.83984
0.85547
0.83008
0.85547
0.85938
0.85547
0.86914
0.90039
0.87891
0.86914
0.86914
0.89453
0.91992
0.91406
0.875
0.88477
0.91016
0.66406
0.2207
0.025391
0.085938
0.21094
0.43945
0.64063
0.79492
0.91406
0.99023
1
1.0449
1.0391
1.0391
1.0449
1.0254
1.0391
1.0391
1.0293
1.0352
1.0039
0.99414
1
0.99023
1.0098
0.98438
0.98438
0.99023
1.0449
1.0645
1.0254
1.0195
1.084
1.084
1.0996
1.0742
1.0586
1.0703
1.0586
1.0488
1.0137
0.96484
0.94922
0.91992
0.91016
0.84961
0.82422
0.84375
0.82422
0.78906
0.77539
0.78906
0.79492
0.81445
0.83008
0.86914
0.875
0.90039
0.86523
0.85938
0.88867
0.9043
0.89453
0.91406
0.92969
0.93555
0.91016
0.92383
0.93555
0.88867
0.90039
0.875
0.89453
0.91406
0.93555
0.91406
0.9043
0.88867
0.87891
0.88477
0.91406
0.91406
0.91992
0.85547
0.80469
0.82422
0.83008
0.81055
0.82422
0.87891
0.91406
0.43555
0.076172
0.03125
0.13477
0.31445
0.54492
0.69922
0.86523
0.95898
0.97461
0.99023
1.0254
1.0293
1.0254
1.0352
1.0195
1.0254
0.98047
0.98438
0.95898
0.96484
0.95508
0.98047
0.99023
0.96484
0.95508
0.95898
0.97461
0.99023
0.99023
0.99023
0.98438
0.96875
1.0098
1.0391
1.0293
1.0098
0.99023
0.96875
0.99023
0.94531
0.93555
0.9043
0.875
0.875
0.89453
0.88477
0.875
0.85938
0.86914
0.88477
0.87891
0.84375
0.85938
0.875
0.90039
0.88867
0.9043
0.87891
0.875
0.89453
0.875
0.86914
0.875
0.89453
0.85938
0.875
0.875
0.86914
0.85938
0.88477
0.90039
0.9043
0.90039
0.875
0.85938
0.88867
0.88477
0.90039
0.84961
0.86914
0.83398
0.82031
0.85547
0.86523
0.875
0.86523
0.95508
0.61523
0.20508
0.099609
0.18945
0.30078
0.51563
0.67969
0.81055
0.90039
0.96875
0.97461
1
1.0195
1.0391
1.0137
1
1.0137
0.99023
1.0137
0.99414
0.99414
1.0098
1.0195
1
1.0137
1.0098
1.0137
0.99023
1.0254
1.0137
0.99414
1.0098
1.0449
1.0254
1.0098
1.0195
1.0254
1.0039
0.98438
0.97461
0.94922
0.95508
0.91992
0.89453
0.88477
0.86523
0.84961
0.85547
0.86523
0.88867
0.85938
0.85547
0.87891
0.90039
0.87891
0.88867
0.875
0.89453
0.86523
0.85547
0.875
0.87891
0.88477
0.90039
0.87891
0.88867
0.875
0.86914
0.9043
0.90039
0.88477
0.89453
0.94531
0.91406
0.87891
0.83398
0.84961
0.85547
0.85938
0.84961
0.85938
0.85938
0.86914
0.88867
0.90039
0.85547
0.83398
0.90039
0.5
0.13086
0.044922
0.14063
0.26953
0.5
0.69922
0.83398
0.93555
0.98047
0.96875
0.98047
0.99023
1.0039
1.0137
1.0039
0.97461
0.99023
1.0098
1.0137
1.0137
1.0391
1.0195
1.0352
1.0098
1
1.0195
1.0254
1.0098
1.0293
1.0547
1.0645
1.0547
1.0449
1.0391
1.0586
1.0742
1.0586
1.0391
1.0098
0.99414
0.96875
0.93555
0.90039
0.90039
0.86914
0.875
0.86523
0.875
0.85938
0.88477
0.90039
0.875
0.88477
0.86523
0.875
0.86914
0.88867
0.9043
0.88477
0.85547
0.875
0.88867
0.88477
0.88867
0.90039
0.87891
0.9043
0.88867
0.91016
0.88867
0.88477
0.90039
0.9043
0.86914
0.87891
0.88867
0.87891
0.88867
0.85547
0.86914
0.85938
0.85547
0.84961
0.875
0.86523
0.90039
0.92383
0.44922
0.060547
0.015625
0.11523
0.2793
0.52539
0.70898
0.86914
0.93555
0.94922
0.99414
1.0195
1.0254
1.0547
1.0195
1.0098
1.0352
1.0449
1.0098
0.99414
1.0098
1.0137
1
1.0254
1.0391
1.0488
1.0391
1.0547
1.0254
1.0352
1.0391
1.0391
1.0488
1.0586
1.0449
1.0703
1.0586
1.0391
1.0293
0.99023
0.96484
0.94531
0.93555
0.91992
0.90039
0.91406
0.87891
0.875
0.90039
0.85938
0.875
0.88477
0.88477
0.84961
0.85547
0.875
0.88867
0.88477
0.90039
0.88867
0.91992
0.90039
0.86914
0.83984
0.83398
0.84961
0.85547
0.86523
0.85547
0.88477
0.83984
0.86523
0.88477
0.89453
0.875
0.86914
0.84375
0.84961
0.85547
0.85938
0.84375
0.84961
0.83398
0.85938
0.84375
0.83984
0.875
0.9043
0.93555
0.625
0.23047
0.060547
0.10547
0.24023
0.49023
0.68945
0.82031
0.92383
0.95898
0.97461
0.96875
0.98047
0.99414
0.99023
1.0195
1.0195
1.0293
0.99414
0.99023
0.97461
0.98047
0.96875
0.99023
1
0.99023
0.99023
1
1.0137
1.0039
1.0254
0.99414
1.0137
1.0352
1.0547
1.0195
1.0039
1.0039
0.99414
0.98047
0.96875
0.98047
0.94531
0.88867
0.86914
0.875
0.86914
0.875
0.85938
0.86523
0.875
0.86914
0.84375
0.85938
0.88867
0.875
0.86914
0.89453
0.86523
0.90039
0.9043
0.91406
0.86914
0.87891
0.875
0.88867
0.90039
0.90039
0.90039
0.9043
0.91406
0.93945
0.89453
0.88867
0.9043
0.85938
0.84375
0.875
0.87891
0.875
0.90039
0.86914
0.88867
0.88477
0.90039
0.85547
0.84961
0.94922
0.68945
0.26953
0.10547
0.16602
0.29492
0.5
0.69531
0.82031
0.91992
0.97461
1.0039
0.98438
0.99414
0.96875
0.99023
0.99023
1.0137
0.99023
1.0098
1.0254
0.96875
0.98047
0.99414
1.0098
0.97461
0.98438
0.97461
1
1.0098
1.0293
1.0254
1.0098
1.0039
1.0352
1.0449
1.0195
1
1.0137
1.0039
1
0.96484
0.93945
0.91992
0.90039
0.90039
0.91016
0.89453
0.88477
0.86914
0.86914
0.89453
0.86523
0.86914
0.84961
0.85938
0.85547
0.875
0.88477
0.875
0.875
0.875
0.875
0.875
0.875
0.89453
0.87891
0.88477
0.90039
0.89453
0.87891
0.88477
0.89453
0.91016
0.89453
0.84961
0.84961
0.85547
0.86914
0.87891
0.88477
0.875
0.90039
0.86914
0.86914
0.84375
0.83398
0.88477
0.9043
0.37109
0.050781
0.044922
0.20508
0.38086
0.58398
0.73438
0.87891
0.94922
0.96875
0.99023
1.0137
1.0195
1.0137
1.0254
0.99023
1
1.0195
1.0137
1.0098
1.0547
0.99414
0.97461
0.99023
1.0098
1.0137
1.0254
1.0352
1.0293
1.0488
1.0703
1.0898
1.0703
1.0391
1.0586
1.0488
1.0449
1.0586
1.0352
0.99414
0.95898
0.94531
0.91016
0.89453
0.88477
0.9043
0.88477
0.88867
0.87891
0.88477
0.90039
0.88867
0.91406
0.91992
0.89453
0.89453
0.88477
0.89453
0.88477
0.875
0.88477
0.87891
0.92969
0.90039
0.87891
0.90039
0.87891
0.86523
0.90039
0.89453
0.9043
0.90039
0.91992
0.875
0.86523
0.86914
0.87891
0.875
0.90039
0.87891
0.91016
0.85547
0.83984
0.83984
0.85547
0.88867
0.91016
0.58984
0.15039
0.03125
0.080078
0.21094
0.44922
0.6543
0.80469
0.93945
0.96484
0.98438
0.99023
1.0039
1.0098
1.0137
1.0293
1.0137
0.99414
1
0.99023
1.0254
1
1.0137
1.0293
1.0352
1.0039
1.0293
1.0547
1.0645
1
0.98438
1.0254
1.0352
1.0703
1.0488
1.0547
1.0391
1.0488
1.0391
0.98047
0.92383
0.93945
0.91016
0.90039
0.88867
0.875
0.86914
0.875
0.86914
0.85547
0.83984
0.83984
0.84961
0.85938
0.82422
0.84961
0.875
0.85547
0.82031
0.83984
0.86523
0.85547
0.84961
0.85547
0.86914
0.83398
0.84375
0.84375
0.82031
0.82422
0.83398
0.83398
0.83398
0.84961
0.86523
0.86914
0.82031
0.83984
0.81055
0.80469
0.79492
0.79883
0.81055
0.80469
0.81055
0.84375
0.82422
0.83398
0.88867
0.91992
0.375
0.025391
-0.013672
0.10547
0.29102
0.51953
0.69531
0.82031
0.88867
0.93945
0.95508
0.94531
0.95898
0.98438
0.99023
0.95898
0.96875
0.93945
0.93555
0.94922
0.95898
0.93945
0.98438
0.99023
0.93945
0.94531
0.96484
0.98047
0.98438
0.95898
0.98438
0.96484
1
1.0039
0.99023
1.0098
0.95898
0.96484
0.95508
0.93945
0.93945
0.90039
0.875
0.87891
0.86914
0.875
0.83398
0.82422
0.82422
0.84961
0.83984
0.85547
0.83008
0.83398
0.82422
0.86914
0.86523
0.84961
0.84961
0.86914
0.875
0.90039
0.85938
0.83398
0.83984
0.83398
0.87891
0.875
0.87891
0.85547
0.87891
0.875
0.88477
0.85938
0.84375
0.83008
0.83984
0.86914
0.9043
0.875
0.83398
0.82031
0.84375
0.84961
0.83398
0.84375
0.91016
0.94531
0.55078
0.15625
0.076172
0.15625
0.31055
0.51953
0.66406
0.81055
0.90039
0.96875
0.96875
1.0137
0.99023
0.96875
0.96484
0.96875
0.97461
0.96875
0.96875
0.97461
0.96875
0.96875
0.96875
0.96484
0.97461
0.98438
0.98047
0.98438
1
1.0098
1
1.0293
1.0391
1.0195
1.0254
1.0039
1.0137
0.98438
0.98438
0.95898
0.93555
0.91992
0.89453
0.90039
0.86914
0.84961
0.86914
0.87891
0.875
0.86523
0.85547
0.84961
0.86914
0.85938
0.875
0.86914
0.88867
0.85547
0.83984
0.87891
0.87891
0.85938
0.84961
0.88477
0.85938
0.88867
0.88477
0.86914
0.875
0.90039
0.90039
0.91016
0.89453
0.87891
0.85547
0.83398
0.875
0.87891
0.84375
0.85547
0.84961
0.86523
0.85938
0.86914
0.85938
0.84961
0.91992
0.72461
0.26563
0.03125
0.080078
0.18555
0.41016
0.61914
0.75977
0.88477
0.94531
0.96875
0.99023
0.97461
0.98047
0.98047
1.0098
1.0137
0.96875
0.99023
1.0098
1.0195
1
1.0195
0.97461
0.99023
0.99023
1.0039
1.0137
1.0293
1.0449
1.0703
1.0801
1.0645
1.0391
1.0391
1.0391
1.0449
1.0137
1.0254
1.0254
1.0254
0.97461
0.93555
0.9043
0.89453
0.89453
0.88867
0.89453
0.88867
0.89453
0.87891
0.90039
0.87891
0.88477
0.85547
0.84961
0.85547
0.87891
0.89453
0.91016
0.9043
0.91016
0.9043
0.88477
0.88867
0.88477
0.89453
0.86523
0.89453
0.88867
0.92383
0.91406
0.91992
0.91992
0.88867
0.84961
0.86523
0.88477
0.90039
0.875
0.91992
0.88477
0.86523
0.85938
0.87891
0.86914
0.90039
0.93945
0.62891
0.18555
0.03125
0.11523
0.24023
0.47461
0.64453
0.77539
0.88477
0.96484
1.0098
1.0352
1.0391
1.0254
1.0586
1.0391
1.0195
1.0391
1.0449
1.0137
1.0254
1.0039
1.0098
1.0039
1.0449
1.0488
1.0391
1.0547
1.0391
1.0547
1.0742
1.0547
1.0586
1.0547
1.0586
1.0391
1.0547
1.0391
1.0352
1.0254
1.0352
0.98047
0.91992
0.88477
0.875
0.88477
0.875
0.88867
0.87891
0.86523
0.875
0.88477
0.88867
0.85547
0.85938
0.86914
0.88867
0.90039
0.87891
0.88477
0.86914
0.85547
0.85938
0.84961
0.85938
0.84961
0.875
0.89453
0.86914
0.84961
0.83984
0.85547
0.86523
0.85547
0.84961
0.86914
0.85547
0.83984
0.84375
0.82422
0.83398
0.81445
0.82422
0.82031
0.85938
0.86914
0.82422
0.79883
0.86523
0.91016
0.55469
0.125
0.0058594
0.070313
0.23438
0.47461
0.66016
0.78906
0.88867
0.91992
0.94922
0.98047
0.96875
0.98047
1.0039
1.0137
0.95508
0.96484
0.94922
0.95508
0.94922
0.98047
0.96875
0.98438
0.99023
0.95508
0.94922
0.97461
0.99023
0.96484
0.98047
1.0039
1.0137
0.99414
0.99023
0.99414
1
1.0039
0.96875
0.98438
0.96484
0.94531
0.9043
0.88477
0.86914
0.875
0.875
0.875
0.86523
0.875
0.875
0.83398
0.85938
0.84961
0.85938
0.86523
0.875
0.875
0.875
0.90039
0.88477
0.9043
0.89453
0.86914
0.875
0.85938
0.84961
0.87891
0.89453
0.90039
0.87891
0.88867
0.90039
0.9043
0.91016
0.91406
0.85547
0.875
0.85938
0.87891
0.85938
0.83984
0.84375
0.86914
0.90039
0.88477
0.85938
0.92383
0.95898
0.5957
0.17578
0.070313
0.13477
0.30078
0.5293
0.69531
0.83008
0.91016
0.96875
0.99023
1.0195
1.0391
1.0098
1
0.98438
0.97461
0.99023
0.99414
0.97461
0.99414
1.0254
1.0254
0.99023
0.96484
0.99023
1.0098
0.99023
1.0098
1.0352
1.0449
1.0547
1.0195
1.0137
1.0391
1.0391
1.0352
0.99414
0.99023
0.96875
0.96484
0.97461
0.93945
0.90039
0.92969
0.91406
0.87891
0.85938
0.84961
0.875
0.85547
0.875
0.88867
0.89453
0.86914
0.88477
0.875
0.89453
0.91406
0.87891
0.875
0.90039
0.90039
0.91992
0.89453
0.88867
0.90039
0.89453
0.91992
0.875
0.88477
0.91406
0.91406
0.91016
0.91406
0.85938
0.86914
0.875
0.875
0.86523
0.875
0.875
0.87891
0.875
0.88867
0.86523
0.9043
0.95508
0.64453
0.20117
0.050781
0.11133
0.24609
0.47461
0.66406
0.81055
0.9043
0.98047
1.0195
1.0449
1.0039
1
1.0137
1.0195
1.0137
1.0137
1.0254
1.0137
1.0039
1.0293
1.0352
1.0254
1.0098
1.0137
1.0254
1.0391
1.0391
1.0547
1.0586
1.0547
1.084
1.1094
1.1191
1.0801
1.084
1.0645
1.0293
1
0.98047
0.95508
0.94531
0.92969
0.92383
0.91992
0.93555
0.91016
0.89453
0.875
0.88477
0.87891
0.90039
0.90039
0.89453
0.875
0.88867
0.9043
0.91992
0.92383
0.88477
0.90039
0.87891
0.90039
0.9043
0.91992
0.89453
0.875
0.86914
0.89453
0.9043
0.92969
0.90039
0.93555
0.92383
0.90039
0.85938
0.88867
0.89453
0.91016
0.88867
0.89453
0.87891
0.88477
0.83008
0.85938
0.84961
0.83398
0.91016
0.76953
0.31055
0.041016
0.035156
0.17578
0.35938
0.58008
0.74023
0.86523
0.95508
0.98438
1.0137
1.0195
1.0293
1.0254
1.0391
1.0098
0.99414
0.99023
1.0098
1.0137
1.0039
1.0137
1.0098
1.0449
1.0352
1.0039
0.99023
1.0137
1.0195
1.0391
1.0586
1.0449
1.0352
1.0449
1.0547
1.084
1.0488
1
0.96875
0.94922
0.93945
0.92969
0.9043
0.87891
0.88867
0.875
0.84961
0.86523
0.88477
0.85938
0.86523
0.82422
0.83008
0.82422
0.83008
0.84375
0.875
0.87891
0.84375
0.84375
0.85547
0.86523
0.875
0.83008
0.83008
0.83398
0.86914
0.87891
0.85938
0.83984
0.82422
0.83398
0.86523
0.84961
0.84375
0.875
0.84375
0.83398
0.82422
0.81445
0.82031
0.82422
0.79883
0.81055
0.81445
0.82422
0.85938
0.81055
0.79492
0.91016
0.70508
0.27539
0.025391
0.085938
0.17578
0.4043
0.56445
0.72461
0.85938
0.9043
0.93555
0.94922
0.95508
0.94531
0.99414
0.99023
0.96484
0.94922
0.96484
0.97461
0.99023
0.93945
0.93555
0.94531
0.96484
0.97461
0.96484
0.93945
0.96484
0.96875
1
0.99023
1.0039
1.0098
1.0254
1.0098
0.99023
0.96484
0.95898
0.97461
0.91992
0.90039
0.88477
0.88867
0.86914
0.88867
0.90039
0.83008
0.82031
0.83008
0.84375
0.82422
0.81055
0.83984
0.86914
0.84961
0.83398
0.83398
0.83398
0.84961
0.86523
0.85938
0.86914
0.85938
0.86914
0.83984
0.86914
0.84375
0.86523
0.84961
0.84375
0.85938
0.87891
0.88477
0.90039
0.85547
0.82422
0.81055
0.84961
0.84375
0.875
0.83008
0.82422
0.86914
0.84961
0.83398
0.84375
0.84961
0.84375
0.91406
0.58008
0.17969
0.064453
0.13086
0.26563
0.51563
0.70508
0.81055
0.88477
0.94922
0.98438
0.99023
0.98047
0.98438
0.99023
1.0098
0.98047
0.96484
0.98047
0.95508
0.96875
0.98438
0.99414
0.99023
0.99023
0.99414
0.99414
1.0137
0.98438
0.96875
1.0098
1.0137
1.0352
1.0098
1.0098
1.0137
1.0391
1.0293
1.0137
0.95898
0.93555
0.91406
0.9043
0.875
0.87891
0.91016
0.88867
0.875
0.85938
0.83008
0.82422
0.84961
0.83398
0.84961
0.86523
0.87891
0.89453
0.875
0.85938
0.89453
0.9043
0.87891
0.85938
0.875
0.87891
0.875
0.89453
0.9043
0.88477
0.89453
0.90039
0.88867
0.90039
0.91406
0.91992
0.875
0.88477
0.90039
0.85547
0.83984
0.83398
0.85547
0.85938
0.86523
0.84961
0.83984
0.88477
0.92383
0.93945
0.46094
0.085938
0.035156
0.15039
0.28516
0.50977
0.68945
0.84375
0.92383
0.97461
1
1
0.99023
1.0352
1.0195
1.0039
1.0137
0.99023
1.0137
0.99414
0.99414
0.99023
1.0488
1.0293
1.0098
1
1.0293
1.0352
1.0449
1.0254
1.0449
1.0742
1.0996
1.084
1.0645
1.0391
1.0547
1.0293
1.0039
0.99414
0.96875
0.96484
0.97461
0.95508
0.94531
0.89453
0.875
0.89453
0.86914
0.86523
0.875
0.88477
0.90039
0.88477
0.89453
0.88477
0.90039
0.91992
0.93555
0.9043
0.88867
0.89453
0.90039
0.88867
0.90039
0.89453
0.91406
0.88477
0.9043
0.87891
0.875
0.88867
0.89453
0.88477
0.92969
0.93945
0.875
0.84375
0.84961
0.88867
0.90039
0.85938
0.86523
0.86914
0.90039
0.91016
0.85938
0.84375
0.84961
0.88477
0.91406
0.44531
0.054688
0.0058594
0.125
0.32422
0.55469
0.70898
0.83398
0.91016
0.93945
0.99023
1
1.0137
1.0039
1.0293
1.0449
1.0137
1.0137
1.0039
0.99414
0.99023
1.0137
0.99414
1.0039
0.99414
1.0098
0.99023
1
1.0137
1.0391
1.0254
1.0488
1.0449
1.0391
1.0137
1.0254
1.0352
1.0039
0.97461
0.96875
0.95898
0.94922
0.9043
0.87891
0.88477
0.875
0.87891
0.84375
0.83984
0.85547
0.86914
0.83984
0.86523
0.84375
0.83984
0.83008
0.84961
0.83984
0.84961
0.84961
0.86523
0.88477
0.89453
0.85547
0.83008
0.83008
0.83398
0.84375
0.83008
0.84961
0.875
0.87891
0.83398
0.85938
0.84375
0.86914
0.875
0.81055
0.80469
0.83398
0.85547
0.82031
0.78516
0.79492
0.81055
0.83008
0.83984
0.84375
0.86523
0.91016
0.65039
0.23438
0.0058594
0.050781
0.16992
0.4043
0.61914
0.76953
0.83984
0.92383
0.95898
0.93945
0.96875
0.97461
1.0098
0.96875
0.96875
0.95508
0.94922
0.95508
0.96875
0.96484
0.99023
0.97461
0.98438
0.99023
0.95508
0.94922
0.96484
0.98047
0.97461
1.0039
0.99023
1.0137
1.0098
1.0137
0.98438
0.99414
0.96875
0.96875
0.93945
0.94531
0.92383
0.91016
0.91992
0.85938
0.85938
0.86914
0.83984
0.82422
0.83398
0.82422
0.875
0.88867
0.87891
0.86914
0.88867
0.86914
0.88867
0.85547
0.85938
0.87891
0.85938
0.84961
0.86914
0.875
0.88477
0.875
0.92969
0.90039
0.875
0.875
0.87891
0.875
0.89453
0.90039
0.88477
0.86523
0.85938
0.9043
0.89453
0.84375
0.84961
0.87891
0.875
0.88477
0.875
0.875
0.93555
0.97461
0.59961
0.16992
0.035156
0.125
0.28516
0.50586
0.67578
0.82031
0.92969
0.99023
1.0195
1.0254
0.99023
1.0039
1.0098
0.97461
0.99023
0.98438
0.99023
0.99414
0.99414
1.0098
1.0195
1.0293
0.98438
0.98047
1.0039
1.0137
1.0098
1.0391
1.0254
1.0137
1.0137
1.0137
1.0137
1.0195
1.0391
1.0352
1.0391
0.98047
0.96484
0.91992
0.91992
0.9043
0.88867
0.88867
0.875
0.88867
0.875
0.9043
0.83984
0.83398
0.84961
0.86523
0.85938
0.875
0.88867
0.88477
0.88867
0.90039
0.90039
0.88477
0.85938
0.87891
0.90039
0.88477
0.87891
0.91016
0.91992
0.91016
0.90039
0.875
0.84961
0.86914
0.87891
0.86914
0.875
0.89453
0.875
0.88477
0.88867
0.875
0.88477
0.88867
0.87891
0.93555
0.46484
0.099609
0.060547
0.14453
0.31445
0.58008
0.75391
0.83398
0.91016
0.96484
0.97461
1
1.0098
1.0195
1.0195
1.0039
0.99414
1.0039
1.0254
1.0352
1.0098
1.0137
1.0137
1.0547
1.0586
1.0449
1.0488
1.0195
1.0293
1.0547
1.0645
1.0488
1.0586
1.0645
1.0742
1.0645
1.0801
1.0449
1.0137
1
0.94531
0.91992
0.91406
0.90039
0.90039
0.88477
0.875
0.86914
0.86914
0.85938
0.875
0.86914
0.88867
0.86523
0.91016
0.93945
0.91406
0.85547
0.85547
0.84961
0.86914
0.87891
0.86523
0.90039
0.89453
0.88867
0.91406
0.88867
0.85938
0.875
0.87891
0.86914
0.84961
0.86523
0.86523
0.87891
0.90039
0.91992
0.9043
0.875
0.875
0.90039
0.88477
0.86523
0.85547
0.85547
0.86523
0.84961
0.84375
0.85547
0.84961
0.85938
0.96484
0.74023
0.27539
0.025391
0.076172
0.16602
0.375
0.60938
0.79883
0.86914
0.93555
0.99023
0.99414
1.0098
1.0254
1.0488
1.0293
1.0137
1.0137
1.0293
1.0039
1.0195
1.0352
1.0449
1.0137
1.0098
1.0039
1.0137
1.0254
1.0195
1.0254
1.0352
1.0547
1.0801
1.0898
1.0742
1.0391
1.0293
1.0391
1.0293
1.0039
0.98438
0.96484
0.94531
0.94922
0.90039
0.91016
0.88477
0.875
0.88477
0.86523
0.85547
0.85938
0.85547
0.88867
0.9043
0.91992
0.875
0.84961
0.85547
0.84961
0.88867
0.875
0.875
0.89453
0.9043
0.875
0.86914
0.90039
0.85938
0.83984
0.84961
0.84961
0.85938
0.85547
0.9043
0.86523
0.85938
0.84961
0.85547
0.83008
0.84375
0.84961
0.87891
0.84961
0.82422
0.82031
0.84375
0.85547
0.84961
0.84375
0.91016
0.75977
0.32422
0.025391
0.019531
0.13086
0.34961
0.57031
0.74023
0.85547
0.91016
0.98438
0.99414
0.96484
0.96875
0.96484
0.96875
0.97461
0.96484
0.96875
0.96875
0.99414
1.0098
0.99414
0.94922
0.94531
0.95898
0.94531
0.96875
0.98047
0.98438
1
0.99414
0.99023
1.0137
1.0293
1.0352
0.99023
0.98438
0.96875
0.94531
0.94922
0.93945
0.86523
0.85938
0.89453
0.85938
0.84961
0.85547
0.84375
0.83984
0.84961
0.85938
0.88477
0.88867
0.86523
0.85547
0.86914
0.85938
0.86523
0.86914
0.89453
0.86914
0.85938
0.84961
0.86914
0.88867
0.90039
0.875
0.86914
0.84375
0.85938
0.87891
0.88477
0.84961
0.86914
0.85547
0.86914
0.85547
0.84375
0.83984
0.875
0.85938
0.83398
0.83984
0.83398
0.84375
0.83984
0.875
0.87891
0.94531
0.78516
0.3457
0.041016
0.099609
0.18945
0.41016
0.58008
0.74414
0.875
0.93555
0.94922
0.96875
0.97461
0.96484
0.98047
0.98438
0.99414
0.98438
0.99414
0.95508
0.98047
0.98438
0.99023
0.96484
0.96484
0.96875
0.97461
0.98438
1.0039
1.0137
1.0293
1.0391
1.0137
1.0098
1.0137
1.0137
1.0137
0.99414
1.0137
1
0.94922
0.96484
0.92383
0.94922
0.9043
0.875
0.875
0.88867
0.86523
0.85547
0.84961
0.85547
0.84375
0.85938
0.87891
0.88477
0.86914
0.875
0.87891
0.84375
0.875
0.85547
0.84961
0.86523
0.86914
0.87891
0.89453
0.86914
0.88477
0.87891
0.875
0.88867
0.90039
0.9043
0.88477
0.86523
0.875
0.83398
0.875
0.87891
0.86914
0.85547
0.84375
0.875
0.85547
0.84375
0.84375
0.83984
0.88477
0.92383
0.48047
0.10547
0.050781
0.16602
0.2793
0.48047
0.68555
0.83008
0.91016
0.95508
0.98438
0.99414
1.0098
1.0352
1.0391
1.0488
0.98047
0.96875
0.98438
0.97461
0.98438
0.99023
0.99023
1.0098
1.0137
1.0352
1.0293
1.0098
1.0195
0.99023
1.0195
1.0293
1.0391
1.0391
1.0391
1.0352
1.0293
1.0254
1.0293
0.98047
0.94922
0.92969
0.91992
0.92383
0.9043
0.87891
0.875
0.88477
0.86914
0.875
0.88477
0.88867
0.875
0.875
0.85547
0.88477
0.91016
0.87891
0.86914
0.90039
0.86914
0.88867
0.90039
0.87891
0.875
0.875
0.86914
0.875
0.87891
0.88867
0.88477
0.89453
0.92383
0.89453
0.88867
0.9043
0.87891
0.86914
0.86523
0.87891
0.87891
0.87891
0.88867
0.84961
0.85547
0.875
0.85938
0.84961
0.9043
0.93555
0.46484
0.064453
0.019531
0.089844
0.26953
0.51953
0.67578
0.83398
0.92969
0.98047
1.0098
1
1.0254
1.0391
1.0039
1.0254
1.0547
1.0586
1.0039
1.0098
1.0254
1.0391
1.0391
1.0352
1.0391
1.0195
1.0293
1.0391
1.0703
1.0488
1.0547
1.0586
1.0586
1.084
1.0996
1.0391
1.0352
1.0391
1.0098
1
1.0137
0.98438
0.94531
0.88867
0.875
0.84961
0.875
0.875
0.88867
0.875
0.86914
0.87891
0.875
0.86914
0.84961
0.83398
0.85938
0.47461
0.14063
0.089844
0.19531
0.42578
0.61523
0.78906
0.88477
0.96484
0.99023
0.96875
0.96484
0.99414
0.96875
0.96875
1
0.98047
0.94922
0.96875
0.95898
0.95508
0.97461
0.95508
0.96875
0.99414
1.0039
0.99414
0.97461
0.99023
1
1.0137
1.0195
1.0137
1.0195
1.0039
1.0137
1
1.0137
0.89453
0.88477
0.87891
0.88477
0.85547
0.84961
0.85547
0.83008
0.83984
0.85547
0.84375
0.84961
0.83398
0.83008
0.84375
0.86523
0.84961
0.85547
0.86523
0.875
0.88477
0.86523
0.83398
0.83984
0.84961
0.82422
0.84375
0.85938
0.86914
0.875
0.84961
0.82422
0.83984
0.82422
0.83398
0.85938
0.84961
0.85547
0.83008
0.84961
0.86523
0.875
0.83398
0.83008
0.83008
0.84375
0.84961
0.83398
0.83008
0.84375
0.83984
0.86523
0.875
0.87891
0.86523
0.86914
0.83398
0.85938
0.86914
0.83984
0.82422
0.84375
0.875
0.88867
0.88477
0.88867
0.90039
0.86914
0.86523
0.83984
0.86523
0.91406
0.94531
0.50977
0.15039
0.085938
0.16016
0.32031
0.53906
0.68945
0.84961
0.94531
0.99414
1
0.98438
0.99023
1.0137
1.0039
0.99414
0.99023
0.98438
0.95508
0.96875
0.99023
0.99023
0.99414
0.96484
0.98438
0.95508
0.98047
0.99023
1.0098
1.0137
0.99414
0.98438
1.0254
1.0293
1.0137
1.0137
1.0195
1.0137
1.0098
0.96875
0.94922
0.92383
0.91406
0.91992
0.92969
0.93555
0.875
0.88867
0.87891
0.875
0.86523
0.85547
0.84961
0.87891
0.85938
0.87891
0.9043
0.91406
0.875
0.88477
0.92383
0.93945
0.88867
0.88477
0.875
0.86914
0.88867
0.91406
0.91992
0.87891
0.87891
0.88867
0.91992
0.92969
0.89453
0.875
0.91406
0.91992
0.87891
0.85547
0.84961
0.85938
0.89453
0.86523
0.90039
0.88867
0.875
0.85938
0.86914
0.87891
0.875
0.92969
0.95508
0.46484
0.080078
0.054688
0.17969
0.35547
0.55469
0.73438
0.85938
0.93555
0.98047
1.0137
1.0195
1.0391
0.99023
0.99023
0.99414
1.0039
0.98047
0.99023
1.0039
1
1.0488
1.0352
1.0098
0.99023
1
1.0098
1.0195
1.0098
1.0391
1.0488
1.0586
1.0547
1.0801
1.0293
1.0449
1.0547
1.0352
1.0137
0.99414
0.96484
0.94531
0.91406
0.90039
0.91406
0.88867
0.875
0.875
0.87891
0.875
0.88867
0.90039
0.90039
0.86523
0.87891
0.90039
0.87891
0.875
0.88477
0.89453
0.875
0.89453
0.91992
0.88867
0.86914
0.875
0.89453
0.86914
0.87891
0.87891
0.88477
0.89453
0.90039
0.88477
0.90039
0.91992
0.875
0.83398
0.84961
0.86523
0.86914
0.875
0.86523
0.875
0.875
0.89453
0.875
0.85547
0.91016
0.92969
0.30469
0.019531
0.0097656
0.14453
0.34961
0.58984
0.7793
0.91406
0.92383
0.96484
1
1.0137
1.0137
1.0039
1.0137
1.0195
1.0352
1.0137
1.0039
1.0137
1.0352
0.99414
1.0039
1.0293
1.0391
1.0137
1.0391
1.0488
1.0391
1.0547
1.0391
1.0547
1.0488
1.0449
1.0488
1.0586
1.0645
1.0742
1.0098
0.99023
0.98438
0.95898
0.92383
0.91992
0.88477
0.88867
0.9043
0.91992
0.84961
0.875
0.88867
0.86914
0.84961
0.89453
0.90039
0.84961
0.86914
0.88477
0.86914
0.89453
0.88867
0.90039
0.91992
0.90039
0.86914
0.85938
0.87891
0.85938
0.85938
0.86914
0.88867
0.86914
0.84375
0.86523
0.85938
0.875
0.87891
0.86914
0.86914
0.86523
0.89453
0.86523
0.83398
0.82422
0.83984
0.85547
0.83984
0.82422
0.81445
0.81055
0.91406
0.92969
0.34961
0.015625
-0.0039063
0.10547
0.35547
0.57422
0.70898
0.85547
0.92383
0.94922
0.95898
0.96484
0.96875
1
1.0137
1.0137
0.96875
0.98047
0.96875
0.97461
0.94922
0.94531
0.95508
0.97461
0.98047
0.95898
0.99023
0.99023
1.0137
1
1.0137
0.98438
1.0039
1.0137
1.0039
0.99023
1
0.99023
0.96875
0.95898
0.94531
0.93945
0.91406
0.87891
0.86523
0.85547
0.86523
0.875
0.85938
0.875
0.85547
0.85938
0.83398
0.86914
0.83398
0.84961
0.85938
0.88477
0.89453
0.88867
0.86914
0.90039
0.86523
0.84961
0.86523
0.875
0.86914
0.875
0.87891
0.86914
0.86523
0.88477
0.89453
0.91016
0.86914
0.85547
0.86523
0.86523
0.86914
0.84961
0.86914
0.84375
0.83398
0.84961
0.86523
0.875
0.86523
0.85938
0.92969
0.69922
0.29492
0.070313
0.11133
0.22461
0.43945
0.625
0.81055
0.91016
0.94922
0.96875
0.97461
0.98438
1
0.98438
0.97461
0.99023
1
1.0039
0.99414
0.96875
0.94922
0.96875
0.96484
0.97461
0.96875
0.99023
0.99414
0.98047
1.0195
1.0293
1
1.0352
1.0391
1.0195
0.99414
1
1.0195
1.0137
0.98438
0.95898
0.92383
0.88867
0.88477
0.875
0.88477
0.875
0.86914
0.88477
0.89453
0.85938
0.83398
0.84961
0.86914
0.84961
0.88477
0.88867
0.86523
0.88477
0.86523
0.84375
0.86914
0.89453
0.87891
0.875
0.87891
0.87891
0.86914
0.86523
0.90039
0.86914
0.84961
0.86523
0.87891
0.88477
0.86914
0.83398
0.82422
0.84375
0.85938
0.88867
0.91406
0.85547
0.82031
0.81055
0.84375
0.84961
0.84961
0.9043
0.71484
0.31055
0.076172
0.11523
0.20117
0.39453
0.61914
0.75
0.875
0.91992
0.96875
0.99023
1
0.99414
1
1.0039
0.98438
1.0195
1.0098
1
0.98438
0.97461
0.99414
1.0137
0.99414
1
0.98438
1.0137
1.0137
1.0195
1.0293
1.0352
1.0293
1.0293
1.0293
1.0488
1.0195
1.0352
1.0391
1
0.98047
0.95898
0.94531
0.94922
0.875
0.875
0.85938
0.85547
0.87891
0.875
0.88867
0.86523
0.875
0.88867
0.88477
0.90039
0.86914
0.84961
0.875
0.85547
0.875
0.875
0.875
0.88867
0.87891
0.91406
0.89453
0.85938
0.85547
0.87891
0.88867
0.88477
0.9043
0.91016
0.90039
0.86523
0.85938
0.89453
0.9043
0.875
0.85938
0.875
0.85547
0.875
0.86914
0.87891
0.875
0.91992
0.78906
0.33984
0.041016
0.025391
0.14063
0.33984
0.57422
0.77539
0.875
0.92969
0.98438
1.0137
1.0352
1.0137
1.0195
1
1.0137
1.0137
1.0137
1
1
0.99414
1.0137
1.0254
1.0137
1.0449
1.0586
1.0352
1.0293
1.0449
1.0293
1.0293
1.0488
1.0645
1.0586
1.0801
1.0742
1.0898
1.0488
1.0039
0.96875
0.95508
0.94531
0.9043
0.90039
0.91992
0.88477
0.89453
0.90039
0.88867
0.875
0.87891
0.875
0.9043
0.89453
0.875
0.91992
0.9043
0.86914
0.88867
0.9043
0.88477
0.90039
0.88867
0.89453
0.91992
0.92383
0.88867
0.88477
0.86914
0.85938
0.86523
0.875
0.87891
0.875
0.91016
0.91406
0.90039
0.84375
0.83984
0.875
0.88477
0.85547
0.86914
0.88477
0.88477
0.85547
0.84375
0.84961
0.83398
0.9043
0.91016
0.33008
0.015625
-0.0039063
0.125
0.32422
0.57031
0.75
0.875
0.93555
0.96875
