0.16992
0.17578
0.17969
0.17578
0.16992
0.17578
0.16602
0.18555
0.16992
0.16992
0.17578
0.17969
0.16602
0.15625
0.17969
0.18945
0.17578
0.17578
0.17578
0.18555
0.16992
0.18555
0.22461
0.24609
0.25977
0.25977
0.30469
0.3457
0.35938
0.35547
0.29492
0.24023
0.2207
0.17578
0.15039
0.15039
0.14063
0.13477
0.13086
0.13477
0.11133
0.15039
0.27539
0.52539
0.93945
1.2598
0.69922
-0.0039063
-0.16406
-0.013672
0.060547
0.11523
0.125
0.10547
0.11523
0.14063
0.15039
0.15039
0.14453
0.15039
0.15039
0.16016
0.16602
0.15039
0.15039
0.16992
0.18555
0.17969
0.17969
0.19531
0.20117
0.20117
0.21484
0.22461
0.24609
0.24609
0.25977
0.29492
0.30469
0.29492
0.28516
0.25977
0.24609
0.23047
0.20117
0.18945
0.18555
0.19531
0.20117
0.17578
0.17578
0.16992
0.18555
0.18945
0.17578
0.18945
0.18945
0.18555
0.17969
0.20117
0.19531
0.18555
0.18945
0.21094
0.19531
0.17578
0.17969
0.18555
0.17969
0.18555
0.17578
0.18555
0.17969
0.18555
0.18945
0.17578
0.17578
0.17578
0.17969
0.19531
0.20117
0.18945
0.19531
0.19531
0.18945
0.20117
0.2207
0.25
0.24609
0.29492
0.33594
0.33984
0.33984
0.32031
0.28516
0.26563
0.22461
0.17578
0.14453
0.13477
0.15039
0.13086
0.12109
0.10547
0.125
0.17969
0.37109
0.69531
1.209
1.3145
0.37109
-0.18945
-0.19336
0.025391
0.095703
0.125
0.13086
0.11523
0.10547
0.10547
0.13086
0.14063
0.14453
0.13477
0.14063
0.15039
0.15625
0.15625
0.16016
0.16992
0.16992
0.15039
0.16992
0.17578
0.16992
0.20508
0.20117
0.21094
0.24023
0.26563
0.2793
0.29492
0.27539
0.26563
0.26953
0.25586
0.21094
0.19531
0.17969
0.16602
0.16602
0.16992
0.16992
0.16016
0.17578
0.17578
0.16016
0.15625
0.15039
0.15039
0.15039
0.15625
0.16602
0.16992
0.15625
0.16016
0.15625
0.15625
0.16992
0.16016
0.15625
0.15625
0.15625
0.15625
0.16992
0.17578
0.16602
0.15625
0.15039
0.15625
0.16602
0.16602
0.15625
0.16016
0.17578
0.16602
0.16992
0.17578
0.20117
0.23438
0.25
0.24609
0.30469
0.3457
0.34961
0.31445
0.29492
0.26563
0.23047
0.17969
0.14453
0.125
0.11523
0.11523
0.12109
0.125
0.125
0.11523
0.20117
0.41016
0.78516
1.2441
0.93555
0.099609
-0.20508
-0.054688
0.070313
0.10547
0.099609
0.10547
0.12109
0.125
0.12109
0.12109
0.13086
0.125
0.13477
0.14063
0.14453
0.14453
0.15039
0.16992
0.16992
0.16602
0.17578
0.17578
0.17578
0.18945
0.20117
0.21094
0.22461
0.26563
0.26953
0.28516
0.29102
0.29102
0.27539
0.25586
0.24023
0.22461
0.19531
0.17969
0.17578
0.17969
0.17578
0.17578
0.16992
0.15039
0.15625
0.17578
0.16992
0.17969
0.18945
0.16602
0.16016
0.15625
0.17578
0.17969
0.16602
0.16992
0.17578
0.16016
0.16602
0.16602
0.16602
0.16992
0.17578
0.16602
0.16016
0.17578
0.16992
0.16016
0.16602
0.16016
0.16602
0.16992
0.16016
0.16016
0.17969
0.18555
0.17969
0.19531
0.17578
0.19531
0.21484
0.24609
0.25977
0.25
0.32422
0.3457
0.33594
0.33984
0.29492
0.24609
0.23438
0.18945
0.15625
0.15039
0.13086
0.12109
0.13086
0.125
0.12109
0.14063
0.24023
0.46094
0.88477
1.2637
0.71484
-0.048828
-0.19336
0.0097656
0.10547
0.13086
0.10547
0.11523
0.13086
0.125
0.13477
0.14453
0.13477
0.14063
0.13477
0.15039
0.15039
0.15625
0.17578
0.18555
0.16992
0.16016
0.16992
0.18945
0.2207
0.19531
0.18945
0.22461
0.24609
0.26563
0.29102
0.29102
0.30078
0.28516
0.29102
0.26563
0.24023
0.21484
0.19531
0.18945
0.20117
0.19531
0.17969
0.16992
0.16992
0.16992
0.16992
0.18555
0.17969
0.17578
0.16992
0.17969
0.17578
0.16992
0.17578
0.17969
0.18555
0.17578
0.16016
0.16602
0.16992
0.16602
0.18555
0.16602
0.15625
0.17578
0.16016
0.16016
0.16602
0.17578
0.16016
0.17578
0.17578
0.17578
0.17578
0.16602
0.16992
0.18555
0.19531
0.17578
0.16602
0.18555
0.23047
0.26953
0.27539
0.23438
0.30078
0.34961
0.33008
0.31055
0.28516
0.25586
0.24023
0.20117
0.17578
0.14063
0.13086
0.13086
0.14453
0.13086
0.11523
0.10547
0.20508
0.41602
0.79492
1.2637
0.91992
0.14453
-0.19336
-0.074219
0.044922
0.099609
0.11523
0.11133
0.13086
0.12109
0.125
0.12109
0.13086
0.15039
0.16602
0.16992
0.15625
0.15039
0.16992
0.16016
0.15625
0.17578
0.17969
0.19531
0.20117
0.19531
0.20117
0.21094
0.24023
0.26953
0.25977
0.26953
0.28516
0.27539
0.27539
0.26563
0.25586
0.21484
0.20117
0.18555
0.20117
0.17969
0.17578
0.17969
0.16016
0.15625
0.16016
0.17969
0.20117
0.17578
0.17969
0.18555
0.17578
0.17578
0.16992
0.17578
0.16602
0.15625
0.19531
0.17969
0.16602
0.16016
0.16602
0.16016
0.16992
0.16602
0.17578
0.17578
0.16602
0.16016
0.18945
0.16992
0.16602
0.16602
0.16992
0.16992
0.17578
0.16016
0.17578
0.16992
0.17578
0.19531
0.23047
0.25
0.26953
0.2793
0.31055
0.33008
0.33594
0.31055
0.27539
0.25
0.20508
0.17578
0.15625
0.14453
0.15039
0.12109
0.13086
0.125
0.11523
0.20508
0.38477
0.76953
1.2695
1.2852
0.24609
-0.17969
-0.080078
0.050781
0.089844
0.12109
0.11523
0.12109
0.13477
0.15039
0.15039
0.15039
0.15039
0.15625
0.15039
0.16602
0.16016
0.16992
0.17969
0.17969
0.16602
0.17578
0.18555
0.19531
0.21094
0.21094
0.23438
0.24609
0.23438
0.26563
0.2793
0.28516
0.29102
0.29492
0.26953
0.25977
0.22461
0.18945
0.16992
0.16016
0.17578
0.16602
0.16992
0.17578
0.17578
0.16992
0.17578
0.17969
0.17578
0.18555
0.17578
0.16602
0.16016
0.16992
0.16992
0.16602
0.17578
0.17578
0.16016
0.16992
0.15625
0.16016
0.16016
0.16016
0.16016
0.17578
0.15625
0.16602
0.17969
0.16602
0.15625
0.17578
0.17578
0.17969
0.18555
0.16992
0.16992
0.17578
0.17578
0.17969
0.20508
0.23438
0.25977
0.25
0.29102
0.33984
0.35547
0.32422
0.30078
0.25586
0.26563
0.20508
0.14453
0.13477
0.14453
0.13086
0.125
0.13477
0.13086
0.13086
0.17969
0.35938
0.69922
1.2148
1.2734
0.23438
-0.19336
-0.064453
0.050781
0.099609
0.11133
0.11133
0.11523
0.125
0.13086
0.12109
0.13086
0.13086
0.14453
0.15625
0.14453
0.15039
0.16602
0.15625
0.16016
0.16016
0.16992
0.18945
0.19531
0.20117
0.22461
0.21094
0.23047
0.25
0.26563
0.29102
0.30078
0.30469
0.31055
0.25
0.24609
0.25
0.20117
0.18555
0.18555
0.19531
0.17578
0.16602
0.16016
0.17578
0.19531
0.16992
0.15625
0.16602
0.16992
0.17969
0.17969
0.19531
0.17578
0.17969
0.16992
0.17578
0.17969
0.19531
0.17578
0.16602
0.16992
0.17578
0.17578
0.17969
0.19531
0.18945
0.17578
0.16602
0.16016
0.17578
0.18945
0.19531
0.18555
0.16016
0.16992
0.17578
0.17578
0.17578
0.17969
0.18945
0.20117
0.22461
0.25586
0.26563
0.25586
0.33594
0.33984
0.33984
0.33594
0.29492
0.25977
0.2207
0.17578
0.15039
0.13477
0.13477
0.13477
0.11523
0.10547
0.12109
0.11523
0.26563
0.44922
0.86914
1.25
0.73047
-0.039063
-0.18359
0.0097656
0.11133
0.125
0.11523
0.10547
0.11133
0.14063
0.13086
0.125
0.14063
0.15039
0.14453
0.13477
0.14453
0.16992
0.18555
0.17578
0.16016
0.17578
0.17969
0.18555
0.20117
0.20508
0.21484
0.21094
0.23047
0.24609
0.27539
0.31055
0.30469
0.28516
0.29102
0.25586
0.22461
0.22461
0.19531
0.17578
0.17578
0.18555
0.18555
0.17969
0.16992
0.16992
0.17578
0.18555
0.18945
0.16016
0.16602
0.18555
0.17578
0.17969
0.18945
0.17578
0.17578
0.17578
0.18555
0.16016
0.16602
0.17578
0.17969
0.19531
0.15625
0.15039
0.15039
0.17969
0.20117
0.16992
0.15039
0.15039
0.16016
0.16602
0.16602
0.18555
0.19531
0.16602
0.15625
0.16016
0.17578
0.2207
0.23438
0.22461
0.2207
0.25586
0.33008
0.35547
0.32422
0.31445
0.27539
0.25
0.21484
0.16992
0.16016
0.15625
0.14453
0.13477
0.125
0.11133
0.12109
0.14453
0.29492
0.54492
1.0098
1.2344
0.59961
-0.089844
-0.19336
-0.013672
0.050781
0.095703
0.12109
0.125
0.12109
0.11133
0.11523
0.13086
0.14453
0.16016
0.16602
0.15039
0.15625
0.14063
0.13477
0.16016
0.17578
0.16992
0.16992
0.17578
0.16992
0.17969
0.18945
0.20117
0.24023
0.26563
0.26953
0.26563
0.28516
0.26953
0.25586
0.23438
0.21484
0.20508
0.18555
0.17578
0.17578
0.17969
0.17578
0.17578
0.16992
0.15625
0.16016
0.16992
0.16602
0.16016
0.16602
0.17578
0.20117
0.17969
0.16602
0.15625
0.16992
0.16602
0.16602
0.16016
0.16016
0.16992
0.17578
0.16602
0.16992
0.16992
0.17578
0.16016
0.17578
0.18945
0.15039
0.16992
0.16602
0.15625
0.15039
0.16016
0.17578
0.19531
0.17969
0.20117
0.22461
0.23438
0.22461
0.29492
0.32422
0.33984
0.30469
0.28516
0.25977
0.23047
0.18555
0.13086
0.125
0.13086
0.13086
0.125
0.125
0.13086
0.099609
0.17578
0.40039
0.79883
1.2949
0.96875
0.10547
-0.21875
-0.058594
0.050781
0.089844
0.099609
0.10547
0.10547
0.10547
0.12109
0.11523
0.11523
0.11133
0.13477
0.15039
0.14453
0.15039
0.13086
0.14453
0.16016
0.15039
0.16992
0.18555
0.17578
0.17969
0.20117
0.21094
0.22461
0.24023
0.25586
0.28516
0.29102
0.27539
0.25586
0.25
0.24023
0.21094
0.18945
0.18555
0.18945
0.15039
0.15039
0.15625
0.16602
0.15625
0.15039
0.15625
0.16602
0.17578
0.18555
0.17578
0.16016
0.16602
0.16992
0.16016
0.16992
0.17969
0.16602
0.15625
0.15039
0.16602
0.16016
0.17578
0.16992
0.15039
0.16016
0.15625
0.15039
0.16992
0.16016
0.16602
0.15625
0.16602
0.16016
0.16992
0.17969
0.15625
0.16992
0.18555
0.21484
0.24609
0.23438
0.26953
0.31445
0.33984
0.3457
0.29492
0.26953
0.24023
0.21484
0.16602
0.13086
0.11523
0.10547
0.11523
0.12109
0.125
0.11523
0.14063
0.26953
0.55469
1.0254
1.2246
0.50977
-0.16406
-0.22461
0.0097656
0.085938
0.10547
0.10547
0.10547
0.11523
0.10547
0.10547
0.125
0.12109
0.13086
0.13477
0.13086
0.13477
0.14453
0.15039
0.14453
0.16016
0.16992
0.16602
0.17969
0.18555
0.17578
0.21484
0.23047
0.24609
0.25586
0.26953
0.29102
0.30078
0.2793
0.25977
0.26563
0.22461
0.18945
0.17578
0.16016
0.16602
0.17578
0.16992
0.15039
0.14453
0.15039
0.16992
0.16016
0.16992
0.17578
0.15625
0.16992
0.16016
0.16016
0.17578
0.16992
0.17578
0.17969
0.16602
0.16992
0.16602
0.16016
0.16602
0.16016
0.16992
0.17578
0.15625
0.15039
0.15625
0.15039
0.16992
0.18555
0.18945
0.15039
0.15039
0.16992
0.17969
0.16016
0.17578
0.16992
0.16602
0.17578
0.20508
0.24609
0.25977
0.24609
0.30078
0.34961
0.36523
0.32422
0.27539
0.24609
0.23047
0.18555
0.13477
0.13477
0.13086
0.11523
0.10547
0.10547
0.125
0.14063
0.18945
0.375
0.75977
1.2188
0.91016
0.080078
-0.19336
-0.035156
0.070313
0.10547
0.12109
0.13086
0.13477
0.13477
0.14063
0.13477
0.12109
0.125
0.14063
0.15039
0.14453
0.14063
0.16602
0.16992
0.16016
0.17578
0.18555
0.20117
0.20508
0.20117
0.19531
0.21094
0.21484
0.24023
0.26563
0.27539
0.28516
0.29492
0.30469
0.27539
0.24609
0.21094
0.20117
0.18555
0.17578
0.16016
0.15039
0.15625
0.17578
0.17578
0.17969
0.18555
0.17578
0.16016
0.16992
0.16602
0.17578
0.17578
0.17578
0.16992
0.17578
0.20508
0.18555
0.16016
0.14453
0.15039
0.16016
0.16602
0.16992
0.17578
0.17578
0.15625
0.14063
0.16602
0.16016
0.16992
0.17578
0.15039
0.15039
0.16016
0.17578
0.17578
0.16992
0.14453
0.15039
0.16016
0.17578
0.19531
0.20508
0.22461
0.23047
0.25977
0.32031
0.33594
0.32422
0.33594
0.30078
0.25
0.21484
0.16602
0.14453
0.15039
0.13086
0.12109
0.11133
0.12109
0.10547
0.14063
0.25977
0.49414
0.95898
1.2246
0.6543
-0.054688
-0.17969
-0.0097656
0.089844
0.13086
0.10547
0.085938
0.099609
0.11133
0.13086
0.13477
0.13477
0.14453
0.14063
0.15625
0.16602
0.15625
0.14453
0.14063
0.16602
0.17578
0.17969
0.18555
0.17969
0.20117
0.20117
0.20508
0.22461
0.22461
0.25586
0.28516
0.29492
0.27539
0.26953
0.25977
0.24023
0.20508
0.18945
0.17578
0.18945
0.20508
0.15039
0.14453
0.15039
0.16602
0.16602
0.16992
0.18555
0.17578
0.16602
0.17969
0.18555
0.18945
0.20117
0.18945
0.16992
0.15039
0.16602
0.16602
0.17578
0.17969
0.18555
0.18945
0.15625
0.15625
0.17578
0.18555
0.16016
0.15039
0.15625
0.17578
0.19531
0.17969
0.17578
0.15625
0.15039
0.16016
0.16992
0.18945
0.20508
0.23438
0.25
0.26563
0.32422
0.33594
0.32031
0.30469
0.27539
0.24023
0.21484
0.16992
0.15039
0.13477
0.12109
0.13477
0.12109
0.10547
0.099609
0.14063
0.28516
0.55469
1.0449
1.2734
0.59961
-0.10938
-0.18945
-0.013672
0.064453
0.099609
0.11133
0.12109
0.13086
0.10547
0.11133
0.14453
0.13477
0.13086
0.15039
0.15625
0.15039
0.15039
0.16016
0.16602
0.16016
0.17578
0.17969
0.19531
0.20117
0.21094
0.21094
0.22461
0.23438
0.24609
0.25977
0.29492
0.31055
0.29492
0.26953
0.26563
0.25
0.2207
0.21484
0.20117
0.16992
0.16992
0.16602
0.16016
0.16602
0.17578
0.17969
0.18555
0.18945
0.20117
0.18945
0.20117
0.18945
0.17578
0.16602
0.16992
0.16992
0.16602
0.16992
0.18555
0.16992
0.15625
0.16016
0.17578
0.19531
0.20117
0.15039
0.14063
0.16602
0.15625
0.16602
0.19531
0.16992
0.16602
0.15625
0.16016
0.17969
0.17969
0.19531
0.23438
0.24609
0.22461
0.25586
0.31055
0.33594
0.33984
0.32422
0.29102
0.25977
0.23438
0.16992
0.14453
0.13477
0.13086
0.11133
0.11133
0.12109
0.11133
0.10547
0.2207
0.43945
0.84961
1.2637
0.78516
-0.039063
-0.21484
-0.025391
0.070313
0.095703
0.089844
0.099609
0.11133
0.099609
0.13086
0.125
0.13086
0.125
0.13086
0.13086
0.15039
0.15039
0.14063
0.14453
0.16016
0.15625
0.16602
0.18945
0.19531
0.18555
0.20117
0.21484
0.25
0.2793
0.2793
0.2793
0.29102
0.29492
0.28516
0.25586
0.24023
0.2207
0.20117
0.18555
0.17969
0.18555
0.16602
0.16992
0.16602
0.17578
0.16602
0.17578
0.17969
0.17969
0.18555
0.17578
0.17578
0.17969
0.17578
0.17969
0.18555
0.16992
0.17969
0.19531
0.20117
0.16602
0.15039
0.16992
0.18555
0.18945
0.18555
0.18555
0.16992
0.16602
0.16602
0.17578
0.18555
0.18945
0.17578
0.16992
0.16016
0.16602
0.18945
0.19531
0.17578
0.18945
0.2207
0.25977
0.25586
0.29102
0.33008
0.33984
0.33008
0.30078
0.26953
0.24609
0.21484
0.16992
0.14453
0.125
0.13477
0.11523
0.10547
0.13086
0.10547
0.13086
0.25977
0.51953
0.99414
1.209
0.50586
-0.16016
-0.19922
0.035156
0.089844
0.099609
0.10547
0.10547
0.11523
0.11133
0.13086
0.13477
0.14063
0.13086
0.16992
0.17578
0.13477
0.14453
0.15625
0.16602
0.16016
0.18555
0.19531
0.16602
0.16016
0.20117
0.21094
0.21484
0.25
0.26953
0.27539
0.26953
0.27539
0.2793
0.29102
0.26953
0.24023
0.18945
0.17578
0.17969
0.19531
0.18555
0.17578
0.16016
0.16016
0.17969
0.18945
0.17578
0.16602
0.16016
0.16602
0.17969
0.17969
0.17578
0.16602
0.21094
0.2207
0.16016
0.15039
0.16602
0.16992
0.17578
0.16992
0.17578
0.17969
0.18555
0.18945
0.17969
0.17578
0.16602
0.16602
0.16602
0.17578
0.16602
0.16602
0.16992
0.16016
0.20508
0.18555
0.16992
0.17969
0.2207
0.24023
0.24609
0.24609
0.26563
0.30469
0.3457
0.34961
0.33594
0.30078
0.25977
0.21484
0.17578
0.15625
0.16016
0.125
0.13086
0.11523
0.125
0.13086
0.15039
0.29102
0.57031
1.0449
1.2402
0.53516
-0.099609
-0.17383
0
0.070313
0.099609
0.11523
0.125
0.11523
0.13477
0.15625
0.12109
0.11133
0.15039
0.16016
0.16992
0.16016
0.14063
0.14453
0.16016
0.17578
0.17578
0.19531
0.21094
0.18555
0.17969
0.20117
0.22461
0.23047
0.24609
0.2793
0.29492
0.28516
0.25977
0.25586
0.26953
0.2207
0.21094
0.20117
0.17969
0.18945
0.16992
0.15039
0.15625
0.17578
0.18945
0.18555
0.16992
0.15039
0.15625
0.17578
0.17578
0.17578
0.18555
0.19531
0.16602
0.17578
0.16602
0.17578
0.17578
0.20117
0.17578
0.16992
0.15625
0.16602
0.17578
0.16992
0.16016
0.16992
0.17969
0.16602
0.16016
0.17578
0.16602
0.16992
0.16992
0.16602
0.17578
0.20117
0.22461
0.25
0.24609
0.27539
0.33008
0.34961
0.33984
0.31445
0.2793
0.26953
0.23047
0.16016
0.125
0.13086
0.125
0.12109
0.14063
0.15039
0.125
0.14453
0.30469
0.60547
1.1289
1.2852
0.46094
-0.13867
-0.17969
0.015625
0.085938
0.10547
0.10547
0.11133
0.11523
0.11523
0.12109
0.13086
0.14063
0.13086
0.13086
0.15039
0.16016
0.15625
0.15039
0.16602
0.17578
0.17969
0.16992
0.15039
0.16992
0.18945
0.20117
0.22461
0.24023
0.26563
0.2793
0.30078
0.30469
0.31445
0.25977
0.24023
0.21094
0.20508
0.18945
0.16602
0.16992
0.16602
0.16602
0.16602
0.16992
0.17969
0.16992
0.16016
0.16602
0.18555
0.17578
0.16602
0.16602
0.16992
0.16602
0.16992
0.17578
0.16992
0.17969
0.17578
0.16992
0.17578
0.16016
0.16602
0.17578
0.16992
0.16016
0.16992
0.17578
0.16016
0.16016
0.16992
0.17969
0.17578
0.16602
0.15625
0.16602
0.20117
0.25
0.26563
0.25586
0.32031
0.33984
0.3457
0.32031
0.29102
0.25586
0.2207
0.18555
0.13477
0.12109
0.13086
0.12109
0.11133
0.13086
0.11523
0.11133
0.21484
0.40039
0.78906
1.2246
0.86523
0.019531
-0.19922
-0.035156
0.060547
0.10547
0.11523
0.095703
0.125
0.13086
0.11133
0.11523
0.125
0.12109
0.13477
0.13086
0.15039
0.15039
0.15039
0.16602
0.15039
0.16016
0.17578
0.16992
0.17578
0.20117
0.20117
0.2207
0.24609
0.25977
0.29102
0.29492
0.30078
0.29492
0.26953
0.27539
0.26563
0.20117
0.17578
0.17969
0.17969
0.16992
0.16016
0.17578
0.16992
0.16602
0.17578
0.17578
0.16992
0.18945
0.19531
0.16016
0.16016
0.15625
0.16602
0.17578
0.16992
0.16992
0.18555
0.20117
0.16602
0.16602
0.18555
0.19531
0.17578
0.15625
0.15039
0.16016
0.17578
0.17578
0.18945
0.17969
0.17969
0.17578
0.16602
0.17578
0.18945
0.20117
0.21094
0.18555
0.21484
0.24609
0.26953
0.27539
0.30469
0.3457
0.35547
0.34961
0.31445
0.2793
0.24609
0.19531
0.16602
0.15039
0.13086
0.125
0.11523
0.11133
0.125
0.125
0.16016
0.31445
0.64063
1.125
1.2344
0.27539
-0.19336
-0.064453
0.060547
0.10547
0.11523
0.10547
0.099609
0.11133
0.12109
0.14453
0.16992
0.15625
0.11133
0.125
0.13086
0.13086
0.15039
0.16602
0.16016
0.16992
0.17578
0.17578
0.20508
0.24023
0.22461
0.20508
0.19531
0.2207
0.24609
0.28516
0.30469
0.30078
0.2793
0.26563
0.24609
0.22461
0.20508
0.18945
0.17969
0.17578
0.16992
0.15625
0.16602
0.16992
0.17578
0.17578
0.17578
0.17969
0.17578
0.17578
0.17969
0.22461
0.21094
0.17578
0.16602
0.16016
0.16602
0.16016
0.17578
0.18555
0.19531
0.16602
0.15039
0.17969
0.18945
0.15039
0.16602
0.19531
0.17969
0.17578
0.16016
0.15625
0.16016
0.16992
0.17578
0.15625
0.17578
0.17969
0.17578
0.17578
0.20117
0.19531
0.16992
0.16602
0.21094
0.23438
0.24609
0.24023
0.27539
0.32031
0.3457
0.35938
0.33594
0.28516
0.24609
0.2207
0.16602
0.15039
0.16016
0.14063
0.12109
0.11523
0.13086
0.13086
0.16992
0.31055
0.5293
0.99023
1.209
0.57422
-0.070313
-0.14844
0.0097656
0.076172
0.10547
0.11523
0.13086
0.13086
0.13477
0.16602
0.14453
0.13086
0.14453
0.17969
0.16602
0.14063
0.15039
0.16992
0.17969
0.20117
0.19531
0.17578
0.18945
0.21094
0.2207
0.23438
0.22461
0.23047
0.25586
0.29102
0.30078
0.31445
0.32031
0.29492
0.26563
0.24609
0.23438
0.20117
0.18945
0.19531
0.18555
0.17578
0.20117
0.20508
0.17969
0.18945
0.18945
0.20117
0.20117
0.19531
0.19531
0.19531
0.18945
0.22461
0.20117
0.17578
0.17969
0.17578
0.17578
0.19531
0.20117
0.17969
0.20117
0.18945
0.17578
0.16992
0.18555
0.17578
0.17578
0.16992
0.17578
0.17969
0.20117
0.18555
0.17969
0.21484
0.18555
0.17578
0.19531
0.20117
0.16992
0.2207
0.25
0.26953
0.25977
0.33594
0.33984
0.3457
0.33594
0.30469
0.27539
0.24023
0.20508
0.16016
0.13477
0.13086
0.12109
0.13086
0.13477
0.13086
0.14453
0.24023
0.46094
0.9043
1.2891
0.78906
0
-0.16406
-0.019531
0.050781
0.085938
0.099609
0.11133
0.13086
0.11523
0.14453
0.125
0.11523
0.14453
0.15039
0.14453
0.13086
0.13477
0.15039
0.14453
0.17578
0.17969
0.16016
0.17969
0.18555
0.18945
0.19531
0.20117
0.21094
0.23047
0.26563
0.2793
0.26953
0.26953
0.26953
0.25977
0.23047
0.21484
0.17969
0.16016
0.16602
0.16016
0.16016
0.15039
0.13086
0.15039
0.16602
0.16992
0.16016
0.15625
0.16016
0.16602
0.16016
0.16602
0.16992
0.15039
0.16602
0.17578
0.16992
0.15039
0.14453
0.15039
0.16992
0.17578
0.15039
0.15039
0.15039
0.15625
0.15039
0.16992
0.15625
0.14063
0.14063
0.15039
0.15625
0.15039
0.16992
0.16016
0.15039
0.16602
0.15039
0.17578
0.21484
0.24609
0.22461
0.26953
0.32031
0.33984
0.32031
0.31055
0.27539
0.22461
0.20117
0.16992
0.14453
0.12109
0.11523
0.10547
0.11523
0.11523
0.12109
0.15039
0.27539
0.53906
1.0098
1.2148
0.49414
-0.16406
-0.21484
0.019531
0.080078
0.089844
0.12109
0.10547
0.095703
0.11133
0.11523
0.12109
0.11133
0.10547
0.13477
0.14453
0.15039
0.16016
0.16602
0.14453
0.15625
0.15625
0.16602
0.17578
0.18945
0.20117
0.20117
0.2207
0.24609
0.25977
0.2793
0.29492
0.27539
0.28516
0.29102
0.25
0.2207
0.20117
0.19531
0.18555
0.16602
0.16016
0.17578
0.15625
0.16016
0.15625
0.16992
0.17578
0.17969
0.17578
0.17578
0.16602
0.17578
0.16016
0.17578
0.16602
0.16016
0.16602
0.18555
0.19531
0.16992
0.15039
0.15625
0.15039
0.17578
0.15625
0.16016
0.16992
0.16602
0.17578
0.15625
0.15039
0.17578
0.17969
0.18555
0.16992
0.16602
0.17969
0.17969
0.21094
0.22461
0.20508
0.2207
0.24609
0.24023
0.31055
0.35547
0.36523
0.33984
0.3457
0.26563
0.23047
0.20117
0.16602
0.14453
0.13477
0.13086
0.125
0.13086
0.14453
0.11133
0.10547
0.29492
0.61914
1.1094
1.2285
0.29102
-0.20508
-0.09375
0.050781
0.12109
0.125
0.11133
0.13086
0.13477
0.13477
0.13477
0.14063
0.125
0.13086
0.14453
0.16602
0.17578
0.15625
0.15625
0.16992
0.17969
0.17578
0.18945
0.20117
0.18555
0.19531
0.21094
0.23438
0.24609
0.27539
0.31055
0.31445
0.28516
0.29492
0.27539
0.25
0.25
0.2207
0.20117
0.17969
0.16992
0.17578
0.16602
0.17578
0.18945
0.17578
0.16016
0.17578
0.17578
0.18945
0.20117
0.17578
0.16602
0.15625
0.16602
0.20117
0.21484
0.20117
0.16992
0.15625
0.16602
0.17578
0.17578
0.19531
0.17578
0.17578
0.17578
0.16602
0.18945
0.20117
0.17578
0.15625
0.16602
0.17969
0.18555
0.18945
0.20508
0.21094
0.16992
0.15625
0.16992
0.20117
0.24609
0.26563
0.24609
0.23047
0.30469
0.3457
0.36523
0.37109
0.30078
0.26563
0.23438
0.19531
0.17578
0.17578
0.16016
0.14063
0.12109
0.13086
0.14063
0.13477
0.21094
0.375
0.73438
1.2051
0.91406
0.18555
-0.1543
-0.013672
0.070313
0.12109
0.10547
0.12109
0.11523
0.11523
0.13477
0.15039
0.15039
0.14453
0.13477
0.16992
0.17969
0.14453
0.13477
0.15039
0.16016
0.17969
0.20117
0.20117
0.18555
0.18555
0.18945
0.22461
0.23047
0.24023
0.26953
0.2793
0.2793
0.29102
0.28516
0.26563
0.24609
0.2207
0.20117
0.19531
0.18945
0.17578
0.16992
0.17969
0.17578
0.17578
0.16992
0.15625
0.16602
0.18555
0.21484
0.17969
0.16602
0.17578
0.17969
0.18555
0.16992
0.16992
0.17578
0.17578
0.18555
0.20117
0.17578
0.15625
0.16016
0.17578
0.18555
0.16992
0.16016
0.16992
0.18555
0.20117
0.17969
0.16016
0.15625
0.17969
0.17578
0.17578
0.16992
0.17969
0.19531
0.20117
0.20117
0.24023
0.25586
0.26953
0.31055
0.32031
0.33008
0.32422
0.29492
0.2793
0.24023
0.17969
0.14453
0.13477
0.13086
0.12109
0.13086
0.13086
0.099609
0.13477
0.25586
0.50586
0.96484
1.2949
0.72461
-0.044922
-0.19336
-0.029297
0.070313
0.10547
0.10547
0.12109
0.11523
0.13086
0.11133
0.12109
0.14063
0.15039
0.125
0.13477
0.14063
0.13477
0.14453
0.16992
0.18555
0.15625
0.16016
0.15039
0.16016
0.18555
0.22461
0.22461
0.2207
0.21484
0.25
0.26953
0.29492
0.27539
0.2793
0.24023
0.20508
0.20117
0.18555
0.17578
0.17578
0.14453
0.13477
0.14453
0.16016
0.15625
0.17578
0.15625
0.16992
0.15625
0.14453
0.16016
0.17578
0.16602
0.16016
0.17578
0.16602
0.15625
0.16602
0.16016
0.16016
0.17578
0.16602
0.15039
0.15625
0.15625
0.17969
0.20117
0.15625
0.14453
0.16016
0.16602
0.16016
0.18555
0.16602
0.15625
0.16602
0.16992
0.18555
0.19531
0.17969
0.15625
0.16016
0.17578
0.17578
0.18555
0.2207
0.25586
0.26563
0.25
0.32031
0.33984
0.33984
0.32422
0.29102
0.25
0.2207
0.18555
0.15039
0.15039
0.13086
0.11523
0.13086
0.11133
0.10547
0.15625
0.30078
0.55469
1.0293
1.2637
0.58398
-0.11914
-0.19336
0
0.089844
0.10547
0.099609
0.10547
0.11133
0.13086
0.14063
0.12109
0.11133
0.13086
0.15039
0.14063
0.15039
0.13086
0.14453
0.15039
0.16016
0.16992
0.17969
0.16602
0.16602
0.18555
0.20508
0.21094
0.2207
0.24023
0.25
0.28516
0.29492
0.27539
0.25586
0.24023
0.23047
0.20508
0.18555
0.17578
0.16992
0.15039
0.14453
0.15039
0.16016
0.15625
0.16602
0.16016
0.16992
0.16016
0.16992
0.16602
0.15625
0.16016
0.16016
0.16602
0.15625
0.18945
0.21094
0.13477
0.13086
0.15039
0.15625
0.16602
0.17578
0.16016
0.15625
0.15039
0.16602
0.17578
0.18555
0.18945
0.14453
0.14063
0.15039
0.16016
0.16016
0.17578
0.20117
0.15039
0.14453
0.16992
0.17578
0.19531
0.22461
0.25
0.25977
0.25
0.31445
0.3457
0.36523
0.37109
0.26953
0.24609
0.24023
0.21484
0.16016
0.13086
0.12109
0.11523
0.13086
0.15039
0.13086
0.12109
0.21484
0.42578
0.82031
1.2188
0.76563
-0.013672
-0.19336
-0.0039063
0.099609
0.14453
0.12109
0.11133
0.12109
0.125
0.11523
0.13477
0.14453
0.14453
0.14063
0.16016
0.15625
0.16602
0.15039
0.17578
0.17969
0.17578
0.17578
0.16992
0.17969
0.19531
0.2207
0.24023
0.24609
0.25
0.25977
0.27539
0.29102
0.29492
0.30078
0.25977
0.24023
0.2207
0.21094
0.21484
0.16992
0.15039
0.15625
0.17578
0.17578
0.16992
0.15625
0.16016
0.17578
0.20117
0.18555
0.16602
0.15039
0.14453
0.17578
0.16992
0.17578
0.18555
0.17969
0.17578
0.18555
0.17578
0.17578
0.16602
0.16016
0.16016
0.16992
0.16016
0.17578
0.17969
0.17578
0.17969
0.16016
0.15625
0.17578
0.17578
0.17578
0.17578
0.17578
0.17969
0.17578
0.17969
0.17578
0.19531
0.2207
0.24023
0.23047
0.22461
0.2793
0.35547
0.36523
0.33008
0.30078
0.25977
0.24023
0.21484
0.18555
0.18945
0.14453
0.12109
0.13477
0.13086
0.125
0.12109
0.17578
0.33984
0.68555
1.1289
1.2148
0.31055
-0.1543
-0.080078
0.035156
0.089844
0.11523
0.12109
0.125
0.16016
0.17578
0.13086
0.125
0.13086
0.15039
0.15625
0.15625
0.16016
0.16016
0.16602
0.16992
0.20117
0.21484
0.17578
0.17578
0.18945
0.21484
0.22461
0.2207
0.24023
0.26953
0.27539
0.29492
0.29102
0.28516
0.29492
0.26563
0.22461
0.21094
0.18945
0.21484
0.22461
0.17578
0.17578
0.17969
0.18555
0.21094
0.21484
0.17969
0.16992
0.17969
0.17969
0.18945
0.19531
0.20117
0.19531
0.21094
0.21484
0.17578
0.17969
0.16992
0.17578
0.17578
0.17969
0.16602
0.16016
0.19531
0.20508
0.17969
0.17969
0.17578
0.16992
0.18555
0.18945
0.20117
0.17578
0.17578
0.17969
0.17578
0.18945
0.20117
0.17969
0.2207
0.25586
0.2793
0.29102
0.32031
0.33984
0.32422
0.32422
0.30469
0.25977
0.23047
0.18555
0.15625
0.15039
0.15039
0.13086
0.13477
0.14063
0.13086
0.17969
0.28516
0.56055
1.0645
1.2695
0.58398
-0.083984
-0.17969
-0.0039063
0.085938
0.12109
0.15039
0.14453
0.10547
0.099609
0.12109
0.14063
0.15625
0.16992
0.17578
0.13086
0.13477
0.16992
0.17578
0.15625
0.16992
0.17578
0.19531
0.17969
0.16992
0.18555
0.21094
0.22461
0.2207
0.24023
0.26563
0.28516
0.29492
0.30469
0.28516
0.24023
0.23438
0.21484
0.18945
0.17969
0.17578
0.17969
0.16992
0.17578
0.17578
0.17578
0.17969
0.18945
0.17578
0.16602
0.16992
0.17969
0.18945
0.18945
0.18945
0.17969
0.16992
0.19531
0.17969
0.16992
0.17578
0.17969
0.18945
0.17969
0.17969
0.18555
0.17578
0.17969
0.15039
0.15625
0.16992
0.17969
0.18945
0.20117
0.15625
0.15039
0.16602
0.18555
0.19531
0.20508
0.22461
0.25
0.25
0.30078
0.35547
0.3457
0.31445
0.29492
0.26953
0.25586
0.22461
0.16016
0.13086
0.13086
0.13086
0.14063
0.12109
0.12109
0.10547
0.16016
0.33984
0.64453
1.125
1.2598
0.31445
-0.19336
-0.064453
0.054688
0.10547
0.089844
0.099609
0.11523
0.11133
0.11523
0.13477
0.14453
0.125
0.13086
0.15039
0.14453
0.14063
0.16992
0.14453
0.15625
0.15039
0.15625
0.16016
0.17578
0.19531
0.18945
0.21094
0.23047
0.24023
0.25977
0.28516
0.29492
0.29492
0.2793
0.26563
0.24609
0.2207
0.19531
0.17578
0.17969
0.17578
0.18945
0.16992
0.16016
0.17578
0.17969
0.16016
0.15625
0.16992
0.16016
0.16992
0.16602
0.17578
0.16992
0.16992
0.18555
0.17578
0.17969
0.17578
0.16602
0.16992
0.15039
0.15039
0.16602
0.16992
0.16016
0.16016
0.15039
0.15039
0.16016
0.17578
0.15625
0.14453
0.14063
0.16016
0.18945
0.16992
0.16016
0.21484
0.24609
0.25
0.26953
0.31055
0.33008
0.33984
0.31055
0.26953
0.23438
0.20508
0.17578
0.15039
0.125
0.11133
0.11523
0.10547
0.10547
0.11523
0.11133
0.23047
0.44922
0.83984
1.2051
0.74023
-0.054688
-0.20898
-0.0039063
0.095703
0.11523
0.10547
0.125
0.13086
0.12109
0.13086
0.13086
0.14453
0.14063
0.14453
0.15039
0.16992
0.17578
0.15039
0.14453
0.15625
0.16016
0.15039
0.16016
0.19531
0.20117
0.20117
0.22461
0.23438
0.2793
0.29492
0.27539
0.27539
0.26953
0.26563
0.24609
0.24609
0.2207
0.20508
0.20117
0.17969
0.16602
0.15625
0.15039
0.16016
0.16602
0.16016
0.17578
0.18945
0.17578
0.16016
0.17578
0.16992
0.16016
0.16602
0.16992
0.15625
0.16016
0.17578
0.16016
0.17578
0.18555
0.15625
0.15039
0.16016
0.17578
0.18555
0.16602
0.16992
0.16016
0.15039
0.17578
0.17969
0.17578
0.19531
0.16992
0.16016
0.18945
0.2207
0.24609
0.24023
0.2793
0.33594
0.36523
0.3457
0.30078
0.26953
0.25977
0.21484
0.16016
0.14063
0.12109
0.125
0.10547
0.11133
0.12109
0.11133
0.15039
0.2793
0.5293
0.97461
1.1895
0.51953
-0.125
-0.20508
0.015625
0.099609
0.13477
0.13086
0.13086
0.10547
0.099609
0.13477
0.14453
0.125
0.14453
0.15625
0.16016
0.15625
0.16992
0.16992
0.17578
0.17578
0.16602
0.16602
0.17578
0.17578
0.18555
0.20117
0.23047
0.24023
0.26563
0.28516
0.32031
0.30078
0.26953
0.25586
0.25977
0.24023
0.2207
0.18945
0.16992
0.17578
0.17969
0.17578
0.17969
0.16992
0.17969
0.19531
0.16992
0.16016
0.17578
0.18555
0.17969
0.16602
0.15625
0.16602
0.16992
0.18945
0.17578
0.16992
0.16992
0.17578
0.16992
0.16602
0.17578
0.16992
0.17578
0.17969
0.16992
0.17969
0.16016
0.15039
0.15039
0.15039
0.16016
0.16602
0.15625
0.16992
0.16602
0.21484
0.22461
0.2207
0.24609
0.23438
0.29102
0.33594
0.3457
0.31055
0.27539
0.24609
0.2207
0.18555
0.14453
0.13086
0.14063
0.13086
0.11133
0.11133
0.12109
0.099609
0.2207
0.45508
0.86523
1.2695
0.78516
0.041016
-0.17969
-0.025391
0.064453
0.099609
0.11523
0.11133
0.10547
0.10547
0.11523
0.12109
0.13086
0.14063
0.12109
0.11523
0.14063
0.15039
0.15625
0.14453
0.15039
0.15625
0.15039
0.17578
0.16016
0.17578
0.18945
0.20117
0.21484
0.23047
0.24023
0.26563
0.26563
0.26953
0.26563
0.24023
0.22461
0.20508
0.18555
0.17969
0.18555
0.16016
0.16602
0.15625
0.15039
0.15625
0.16992
0.16602
0.15625
0.16016
0.15625
0.17578
0.17969
0.19531
0.15625
0.15039
0.16602
0.18945
0.17578
0.15039
0.14453
0.15039
0.15625
0.17578
0.15625
0.14453
0.15039
0.16992
0.16602
0.16016
0.15039
0.14453
0.14453
0.15039
0.17578
0.17969
0.17578
0.22461
0.23047
0.25
0.33008
0.34961
0.31445
0.30469
0.26953
0.24609
0.24023
0.18945
0.13477
0.11133
0.10547
0.11523
0.12109
0.13086
0.11133
0.095703
0.16992
0.37109
0.74414
1.2051
1.2188
0.095703
-0.24023
-0.048828
0.054688
0.089844
0.099609
0.095703
0.11133
0.11523
0.125
0.12109
0.11133
0.11523
0.13086
0.13477
0.13086
0.15039
0.14453
0.15039
0.16016
0.16992
0.15625
0.15039
0.17578
0.16016
0.17578
0.20117
0.2207
0.24023
0.26953
0.29492
0.28516
0.2793
0.27539
0.25586
0.2207
0.19531
0.17969
0.18555
0.17578
0.16992
0.17969
0.16602
0.16016
0.15039
0.15039
0.16016
0.17578
0.15625
0.16016
0.17969
0.16992
0.15625
0.16992
0.19531
0.17578
0.16602
0.14063
0.15039
0.16992
0.17578
0.14453
0.14453
0.15039
0.16602
0.16992
0.15625
0.15039
0.14453
0.16602
0.16602
0.15625
0.15625
0.16992
0.17969
0.17578
0.16992
0.17578
0.2207
0.25977
0.25
0.28516
0.33594
0.36523
0.32422
0.29492
0.26953
0.24609
0.2207
0.17969
0.15039
0.13086
0.12109
0.125
0.125
0.13086
0.11133
0.099609
0.23438
0.4707
0.91016
1.2148
0.64063
-0.099609
-0.19922
0.015625
0.089844
0.10547
0.11133
0.13086
0.125
0.125
0.13086
0.13477
0.13086
0.14453
0.17578
0.14063
0.14453
0.15039
0.16602
0.17578
0.17578
0.17578
0.17578
0.18945
0.18555
0.20117
0.22461
0.21094
