0.58513
0.59002
0.59491
0.5998
0.6047
0.5998
0.61057
0.61057
0.61546
0.62524
0.63014
0.62035
0.63014
0.63014
0.62524
0.62035
0.61546
0.61057
0.61057
0.61057
0.61057
0.6047
0.61057
0.5998
0.5998
0.59491
0.6047
0.59491
0.5998
0.59491
0.5998
0.5998
0.61057
0.62035
0.65558
0.66047
0.67515
0.68982
0.68493
0.72016
0.7456
0.75049
0.68982
0.63992
0.6047
0.58513
0.55969
0.55969
0.55479
0.55479
0.55479
0.56458
0.58023
0.58513
0.72016
0.84051
0.81996
0.71526
0.59002
0.5499
0.50489
0.53523
0.53523
0.51957
0.51957
0.51957
0.52544
0.51957
0.51468
0.51468
0.51957
0.51468
0.51468
0.51468
0.51957
0.51468
0.51468
0.50978
0.51957
0.51957
0.52544
0.52544
0.53523
0.54501
0.55479
0.57045
0.58023
0.58513
0.58513
0.58513
0.58513
0.58513
0.58513
0.58513
0.58513
0.58513
0.59002
0.5998
0.6047
0.5998
0.61057
0.61546
0.61057
0.62035
0.62035
0.62035
0.62035
0.62524
0.63014
0.62035
0.62524
0.62035
0.62524
0.61546
0.62035
0.61546
0.62035
0.62035
0.62524
0.62035
0.61546
0.61546
0.62524
0.63503
0.67515
0.68004
0.68004
0.68982
0.70059
0.72994
0.75538
0.7407
0.70059
0.64481
0.61057
0.57534
0.55969
0.55479
0.55969
0.55969
0.55479
0.55969
0.57045
0.58023
0.70548
0.84051
0.83072
0.73483
0.59002
0.54012
0.49022
0.52544
0.53033
0.52544
0.51957
0.53033
0.53033
0.53523
0.53523
0.54012
0.53523
0.53523
0.53523
0.53523
0.54012
0.54012
0.54012
0.54501
0.54501
0.54501
0.55479
0.55479
0.57045
0.57045
0.58023
0.58513
0.6047
0.5998
0.6047
0.6047
0.6047
0.59491
0.59491
0.59491
0.5998
0.5998
0.6047
0.61057
0.61057
0.61057
0.61546
0.6047
0.5998
0.61057
0.61057
0.61057
0.61057
0.61546
0.6047
0.61057
0.6047
0.5998
0.59491
0.5998
0.59491
0.6047
0.59002
0.58513
0.59002
0.59491
0.6047
0.59491
0.59491
0.59002
0.59491
0.61057
0.64971
0.65558
0.66047
0.67025
0.68004
0.71037
0.72994
0.71037
0.67515
0.62524
0.58513
0.55969
0.5499
0.54012
0.5499
0.54501
0.54501
0.54012
0.55479
0.56458
0.70059
0.81996
0.80528
0.69472
0.56458
0.52544
0.48043
0.51468
0.51957
0.51468
0.50978
0.50489
0.50978
0.51468
0.51468
0.51468
0.50978
0.51468
0.51468
0.51957
0.51957
0.53033
0.51957
0.53033
0.52544
0.53033
0.53033
0.53523
0.5499
0.55969
0.56458
0.57534
0.58513
0.58513
0.58513
0.59002
0.59002
0.58513
0.58513
0.58023
0.58513
0.58513
0.58513
0.58513
0.59002
0.59002
0.59491
0.59002
0.59002
0.58513
0.59491
0.5998
0.59491
0.59002
0.59002
0.59002
0.59002
0.59002
0.59002
0.59491
0.58513
0.59002
0.59002
0.59002
0.59002
0.59002
0.59002
0.59491
0.5998
0.61546
0.64971
0.65558
0.65558
0.66536
0.67515
0.71526
0.73483
0.72505
0.68493
0.63014
0.58513
0.55969
0.54501
0.54012
0.53523
0.53523
0.54012
0.53523
0.56458
0.55969
0.72994
0.81507
0.79061
0.68493
0.56458
0.54501
0.5
0.51468
0.50489
0.49511
0.49022
0.5
0.5
0.49022
0.5
0.50489
0.5
0.50489
0.50489
0.50978
0.50978
0.51468
0.50978
0.51468
0.50978
0.51957
0.51957
0.53033
0.53523
0.5499
0.5499
0.56458
0.56458
0.58023
0.58023
0.58513
0.58513
0.58513
0.58513
0.58513
0.58023
0.59491
0.58513
0.59491
0.6047
0.6047
0.6047
0.6047
0.61057
0.61057
0.61057
0.61057
0.61057
0.5998
0.61057
0.6047
0.5998
0.59491
0.5998
0.59491
0.5998
0.59491
0.5998
0.6047
0.6047
0.5998
0.5998
0.61057
0.64971
0.66047
0.65558
0.67515
0.68004
0.71526
0.7456
0.73483
0.69472
0.64481
0.6047
0.57534
0.55479
0.5499
0.54501
0.55479
0.55969
0.55479
0.57045
0.55969
0.69472
0.83072
0.82485
0.7407
0.61546
0.56458
0.50489
0.53033
0.53523
0.51468
0.51468
0.50978
0.51468
0.51468
0.51957
0.51468
0.51957
0.51957
0.51468
0.52544
0.53523
0.53033
0.53033
0.53033
0.54012
0.54012
0.54501
0.54501
0.55479
0.55969
0.57534
0.58513
0.59491
0.61057
0.61057
0.61057
0.61057
0.61057
0.61057
0.61057
0.61057
0.62035
0.62524
0.62035
0.62035
0.63014
0.63014
0.63014
0.63014
0.63014
0.63503
0.63014
0.63014
0.63014
0.62524
0.62035
0.62035
0.62524
0.62524
0.61057
0.62035
0.61057
0.61057
0.61057
0.61546
0.61057
0.61546
0.62035
0.65558
0.67515
0.67515
0.68004
0.70059
0.72994
0.76027
0.7456
0.70548
0.65558
0.61057
0.58023
0.56458
0.5499
0.5499
0.55969
0.56458
0.57045
0.58513
0.58513
0.68493
0.84051
0.83562
0.75049
0.61546
0.57045
0.50978
0.53033
0.53523
0.53033
0.51468
0.51468
0.51468
0.51468
0.51957
0.51468
0.51957
0.51468
0.53033
0.51957
0.52544
0.53033
0.53523
0.52544
0.53033
0.53523
0.54012
0.53523
0.55479
0.56458
0.58513
0.58513
0.58513
0.5998
0.61057
0.61057
0.61057
0.5998
0.6047
0.5998
0.5998
0.6047
0.61057
0.61057
0.61057
0.61057
0.61546
0.62035
0.61546
0.61546
0.61546
0.62035
0.61057
0.61057
0.6047
0.61057
0.61057
0.61546
0.61057
0.61057
0.61057
0.61057
0.6047
0.6047
0.61057
0.6047
0.6047
0.61057
0.63992
0.65558
0.66047
0.67515
0.68493
0.69472
0.73483
0.72505
0.70548
0.65558
0.6047
0.57045
0.54501
0.53523
0.54012
0.53033
0.53033
0.52544
0.54501
0.55479
0.5499
0.77984
0.81018
0.7407
0.61546
0.53523
0.49511
0.48532
0.49511
0.48532
0.48043
0.48043
0.48043
0.48532
0.48532
0.48043
0.48043
0.49022
0.49022
0.49511
0.49022
0.49511
0.49022
0.49511
0.49022
0.49511
0.5
0.5
0.51468
0.51957
0.52544
0.53523
0.54012
0.5499
0.55969
0.56458
0.57045
0.55969
0.56458
0.56458
0.57045
0.56458
0.57045
0.57534
0.57534
0.57045
0.58023
0.57534
0.58513
0.58023
0.58513
0.58023
0.58513
0.58513
0.58513
0.58513
0.57534
0.57534
0.58023
0.58023
0.58023
0.58513
0.58023
0.58513
0.58023
0.58513
0.57534
0.58513
0.58023
0.59002
0.61546
0.64971
0.64971
0.65558
0.67025
0.68982
0.72505
0.72016
0.69472
0.64481
0.5998
0.57045
0.53523
0.53523
0.53033
0.52544
0.53523
0.53033
0.55479
0.54501
0.61057
0.79061
0.80528
0.73483
0.63014
0.55969
0.51468
0.49511
0.50489
0.49022
0.48532
0.48043
0.47456
0.49022
0.48532
0.49022
0.48532
0.49022
0.49022
0.5
0.49511
0.50978
0.50978
0.51468
0.51468
0.52544
0.53033
0.53523
0.54012
0.5499
0.55969
0.57045
0.57534
0.58513
0.59002
0.59491
0.5998
0.59491
0.6047
0.61057
0.61057
0.61057
0.61057
0.6047
0.62035
0.61546
0.61057
0.61057
0.62035
0.61546
0.62035
0.61546
0.62035
0.61057
0.61057
0.61057
0.61057
0.61057
0.61057
0.61057
0.61057
0.61057
0.61546
0.61057
0.61546
0.62035
0.62035
0.62524
0.62035
0.67025
0.68004
0.68982
0.70059
0.71037
0.7407
0.76517
0.75049
0.70548
0.65558
0.61546
0.58513
0.57534
0.56458
0.56458
0.56458
0.56458
0.55969
0.58513
0.58513
0.72016
0.8454
0.83562
0.73483
0.61057
0.55969
0.50978
0.53523
0.53523
0.53033
0.51468
0.51468
0.52544
0.53033
0.52544
0.53033
0.52544
0.53523
0.52544
0.53033
0.53523
0.53033
0.52544
0.53033
0.53523
0.53523
0.54012
0.54012
0.55479
0.57045
0.57534
0.58513
0.61057
0.61057
0.62035
0.61057
0.61546
0.61546
0.61057
0.61546
0.61546
0.61546
0.62524
0.62035
0.62524
0.62035
0.62524
0.62524
0.63014
0.63014
0.62524
0.63014
0.62524
0.62035
0.63014
0.62524
0.62524
0.62035
0.62524
0.63014
0.62524
0.63014
0.63014
0.63014
0.62524
0.63014
0.63014
0.63014
0.63014
0.66047
0.68004
0.68493
0.70059
0.71526
0.72994
0.76517
0.77006
0.73483
0.68004
0.63014
0.5998
0.58023
0.56458
0.57045
0.57045
0.57045
0.57045
0.58513
0.59002
0.65558
0.83072
0.8454
0.77495
0.63992
0.55479
0.49511
0.52544
0.53523
0.54012
0.53033
0.53523
0.53033
0.53523
0.53523
0.53523
0.53523
0.53523
0.53523
0.53523
0.53523
0.54012
0.54012
0.53523
0.54501
0.54012
0.5499
0.55479
0.56458
0.57045
0.58513
0.58513
0.5998
0.6047
0.61057
0.61546
0.61546
0.61057
0.61057
0.61057
0.61546
0.61057
0.61057
0.61057
0.61057
0.62035
0.61057
0.62035
0.61546
0.61546
0.61057
0.61057
0.5998
0.6047
0.58023
0.55479
0.50489
0.48532
0.42955
0.27984
0.094912
0
0
0
0
0
0.024462
0.12427
0.19472
0.26517
0.42955
0.64481
0.77984
0.8454
0.87573
0.85029
0.84051
0.83562
0.84051
0.84051
0.8454
0.85029
0.86497
0.88063
0.8953
0.93053
0.9501
0.97554
1.001
1.001
1.001
1.001
1.001
1.001
1.001
1.001
0.96086
0.90509
0.85029
0.80039
0.7456
0.70548
0.66047
0.63503
0.6047
0.58513
0.57534
0.56458
0.55479
0.5499
0.53523
0.54012
0.54501
0.53523
0.53033
0.53523
0.53033
0.52544
0.53033
0.53033
0.51468
0.51957
0.52544
0.51957
0.52544
0.51957
0.52544
0.51957
0.52544
0.52544
0.53033
0.52544
0.53033
0.52544
0.53523
0.53523
0.53523
0.53523
0.53523
0.53523
0.54012
0.53523
0.53033
0.53523
0.5499
0.54501
0.5499
0.55479
0.5499
0.5499
0.55479
0.55969
0.55479
0.55969
0.5499
0.55969
0.5499
0.55479
0.55969
0.55479
0.55479
0.5499
0.54501
0.55479
0.59002
0.5998
0.6047
0.61057
0.62524
0.66047
0.68493
0.68004
0.64481
0.59002
0.5499
0.51468
0.5
0.49022
0.49511
0.49022
0.49511
0.50978
0.53523
0.56458
0.7407
0.77006
0.71526
0.5998
0.53523
0.5
0.47456
0.49511
0.49022
0.48043
0.47456
0.48532
0.48043
0.48532
0.49022
0.49511
0.49022
0.49511
0.49022
0.5
0.49022
0.49511
0.49511
0.50489
0.5
0.51468
0.51468
0.51468
0.51468
0.53523
0.54012
0.53523
0.5499
0.55479
0.55969
0.55969
0.56458
0.56458
0.57045
0.57045
0.58513
0.58023
0.58513
0.58513
0.59491
0.59491
0.6047
0.6047
0.61057
0.61057
0.61057
0.61057
0.61546
0.61057
0.61546
0.61057
0.61057
0.61057
0.61057
0.6047
0.61057
0.61057
0.61546
0.61546
0.61546
0.62035
0.62035
0.63014
0.64971
0.68004
0.68004
0.68982
0.70548
0.71526
0.75538
0.77006
0.7407
0.68982
0.63503
0.6047
0.58023
0.56458
0.55969
0.55969
0.55969
0.55969
0.57045
0.57534
0.6047
0.80039
0.85029
0.80528
0.69472
0.5998
0.53523
0.50978
0.53523
0.52544
0.51468
0.51468
0.51468
0.51468
0.51468
0.51468
0.52544
0.52544
0.52544
0.51957
0.52544
0.51957
0.52544
0.51957
0.52544
0.52544
0.53033
0.54012
0.5499
0.55969
0.57045
0.58513
0.59491
0.6047
0.61057
0.61546
0.61546
0.62035
0.61057
0.61546
0.62035
0.61546
0.61546
0.62524
0.62035
0.62035
0.61546
0.63014
0.63014
0.62524
0.63014
0.62524
0.63014
0.62035
0.62035
0.62524
0.62035
0.61057
0.61546
0.61057
0.61057
0.61057
0.61057
0.61057
0.61057
0.61057
0.61057
0.61057
0.63503
0.66536
0.68004
0.68004
0.68982
0.70548
0.7407
0.75538
0.7407
0.68982
0.62524
0.59002
0.55969
0.55969
0.54012
0.54501
0.54501
0.55479
0.5499
0.55969
0.56458
0.7407
0.81996
0.80039
0.68004
0.5499
0.52544
0.48532
0.50978
0.49511
0.49022
0.49022
0.49022
0.49022
0.5
0.49022
0.48532
0.49511
0.49511
0.5
0.50489
0.5
0.50489
0.5
0.5
0.50489
0.50978
0.51468
0.51468
0.53033
0.54501
0.5499
0.56458
0.57534
0.58513
0.58513
0.58513
0.58513
0.57534
0.58513
0.58513
0.58513
0.58513
0.58023
0.58023
0.58513
0.58513
0.58513
0.58513
0.58513
0.57534
0.57534
0.56458
0.57045
0.57534
0.56458
0.55969
0.55969
0.55479
0.55969
0.55479
0.55969
0.55969
0.55479
0.55969
0.5499
0.55969
0.55969
0.59491
0.61057
0.61057
0.63014
0.64971
0.68004
0.71037
0.68982
0.64971
0.59491
0.55479
0.53033
0.51468
0.50978
0.51468
0.51468
0.50978
0.51468
0.53523
0.53033
0.70059
0.7955
0.77984
0.67025
0.5499
0.52544
0.49022
0.5
0.49022
0.48043
0.47456
0.48043
0.47456
0.48532
0.48532
0.48532
0.48532
0.49022
0.48532
0.49022
0.48532
0.48532
0.49022
0.49022
0.49022
0.49022
0.49511
0.5
0.51468
0.53033
0.54012
0.54501
0.55479
0.56458
0.57534
0.57534
0.58023
0.58023
0.58513
0.58513
0.59002
0.59002
0.59491
0.59491
0.59491
0.59491
0.6047
0.59491
0.6047
0.5998
0.59491
0.59002
0.59002
0.59002
0.58513
0.58023
0.58023
0.58513
0.58023
0.58513
0.57534
0.58023
0.58023
0.58513
0.58513
0.58023
0.58513
0.6047
0.63992
0.65558
0.65558
0.67025
0.67515
0.71526
0.72994
0.71526
0.66536
0.61057
0.57534
0.55479
0.54012
0.53523
0.54012
0.53523
0.53523
0.5499
0.55969
0.55479
0.76517
0.83072
0.80528
0.68982
0.5998
0.55479
0.51468
0.51468
0.50489
0.49511
0.49022
0.49511
0.5
0.50489
0.5
0.50978
0.51468
0.50978
0.51468
0.51468
0.51957
0.53033
0.52544
0.53033
0.53523
0.54012
0.54501
0.54501
0.55479
0.56458
0.58023
0.59491
0.6047
0.6047
0.61057
0.61546
0.61546
0.62035
0.61546
0.62035
0.62524
0.61546
0.62035
0.61546
0.63014
0.63014
0.63503
0.62524
0.63014
0.63014
0.63014
0.63014
0.62524
0.63014
0.62035
0.62035
0.61546
0.62035
0.61057
0.61546
0.61057
0.61057
0.61546
0.61057
0.6047
0.61057
0.63503
0.66536
0.67515
0.67515
0.68982
0.70548
0.7456
0.76027
0.72994
0.67515
0.62524
0.59491
0.56458
0.55969
0.55479
0.55969
0.54501
0.5499
0.55479
0.55969
0.5998
0.79061
0.82485
0.77984
0.65558
0.55969
0.50489
0.48532
0.51468
0.5
0.49511
0.49022
0.49022
0.49511
0.5
0.49511
0.5
0.49511
0.50978
0.5
0.50978
0.50489
0.50978
0.50978
0.51468
0.50978
0.51468
0.52544
0.53523
0.54012
0.55479
0.57045
0.58023
0.59002
0.58513
0.59491
0.5998
0.6047
0.59002
0.58023
0.58513
0.59002
0.5998
0.5998
0.6047
0.59491
0.5998
0.5998
0.58513
0.58513
0.58513
0.59002
0.58513
0.58513
0.58513
0.58023
0.58513
0.58023
0.58023
0.57534
0.58023
0.57534
0.58023
0.58023
0.57534
0.57534
0.58513
0.61546
0.63014
0.63014
0.64971
0.66047
0.68493
0.71526
0.71037
0.66536
0.61546
0.56458
0.53523
0.51957
0.51468
0.51468
0.50978
0.51468
0.52544
0.53523
0.54501
0.68004
0.80039
0.81018
0.70059
0.58513
0.5499
0.5
0.50489
0.50489
0.49022
0.49022
0.49022
0.49022
0.49022
0.49022
0.49511
0.5
0.50489
0.49511
0.49511
0.50489
0.50978
0.50489
0.50978
0.5
0.51468
0.51468
0.52544
0.53523
0.54012
0.55479
0.55969
0.57045
0.58513
0.58513
0.59002
0.59491
0.59002
0.59002
0.59491
0.5998
0.59491
0.61057
0.61057
0.61546
0.61057
0.61546
0.61546
0.62035
0.61546
0.62035
0.61057
0.61057
0.61057
0.61057
0.5998
0.6047
0.5998
0.5998
0.6047
0.6047
0.6047
0.5998
0.6047
0.5998
0.6047
0.6047
0.61057
0.64971
0.66536
0.66047
0.68004
0.69472
0.72994
0.75049
0.75538
0.70059
0.64481
0.6047
0.58023
0.55969
0.55969
0.55479
0.55969
0.54501
0.55479
0.56458
0.55969
0.7407
0.83072
0.81507
0.72505
0.61057
0.58513
0.51957
0.52544
0.50489
0.49022
0.49022
0.49022
0.49022
0.49022
0.49022
0.50489
0.50978
0.50978
0.50489
0.50978
0.51468
0.51468
0.50978
0.50978
0.51468
0.51468
0.52544
0.53033
0.53523
0.54501
0.5499
0.57045
0.58513
0.59002
0.59491
0.6047
0.5998
0.6047
0.5998
0.61057
0.61057
0.61057
0.62035
0.62524
0.63014
0.63014
0.63503
0.63014
0.63992
0.63503
0.63992
0.63503
0.63992
0.64481
0.63014
0.63014
0.62524
0.63014
0.63014
0.62524
0.62035
0.62035
0.63014
0.62035
0.62035
0.62524
0.66047
0.68004
0.68004
0.68004
0.70059
0.72505
0.76517
0.77006
0.72994
0.67025
0.62524
0.6047
0.58023
0.55969
0.55969
0.56458
0.55969
0.56458
0.58513
0.58513
0.67515
0.8454
0.86497
0.77984
0.64481
0.59002
0.51957
0.51468
0.53033
0.52544
0.51957
0.51957
0.51468
0.51468
0.51468
0.52544
0.51957
0.52544
0.52544
0.52544
0.51468
0.52544
0.53033
0.53523
0.53033
0.53523
0.53523
0.54012
0.5499
0.55479
0.56458
0.57534
0.58023
0.58513
0.59491
0.5998
0.5998
0.59491
0.59491
0.59491
0.5998
0.61057
0.5998
0.6047
0.6047
0.61057
0.61057
0.6047
0.61057
0.61057
0.61057
0.6047
0.59491
0.59491
0.58513
0.59002
0.58513
0.59002
0.58513
0.59491
0.58513
0.58513
0.59002
0.58513
0.58513
0.5998
0.59491
0.63503
0.65558
0.65558
0.66047
0.68004
0.71037
0.7407
0.7456
0.70059
0.64481
0.5998
0.55969
0.54501
0.54012
0.53523
0.53523
0.52544
0.54012
0.54501
0.55479
0.63992
0.80039
0.81507
0.71526
0.5998
0.5499
0.5
0.49022
0.50489
0.47456
0.46477
0.46967
0.47456
0.46967
0.47456
0.45988
0.48043
0.46477
0.46477
0.46967
0.47456
0.46967
0.47456
0.46477
0.47456
0.48043
0.49022
0.48532
0.50489
0.51468
0.52544
0.53033
0.5499
0.55969
0.56458
0.57045
0.57045
0.56458
0.57045
0.57534
0.57045
0.58513
0.58513
0.59002
0.59002
0.59491
0.59491
0.6047
0.6047
0.6047
0.6047
0.6047
0.6047
0.5998
0.59491
0.59491
0.5998
0.5998
0.59002
0.58513
0.59491
0.5998
0.59491
0.59002
0.59002
0.59002
0.5998
0.59002
0.59002
0.61546
0.65558
0.65558
0.66536
0.68004
0.69472
0.7407
0.75049
0.72505
0.66536
0.61546
0.58513
0.55479
0.5499
0.55479
0.55479
0.55479
0.55969
0.57534
0.55969
0.63992
0.81996
0.84051
0.77984
0.66536
0.62035
0.55969
0.53523
0.51468
0.49511
0.49511
0.49022
0.5
0.49022
0.49022
0.48532
0.49511
0.50489
0.5
0.49022
0.49511
0.49022
0.5
0.50978
0.5
0.51468
0.52544
0.51468
0.52544
0.53523
0.52544
0.54501
0.55969
0.58023
0.59002
0.6047
0.61057
0.5998
0.59002
0.61057
0.61057
0.61546
0.63014
0.61546
0.63992
0.65558
0.64971
0.65558
0.63014
0.63992
0.63014
0.64971
0.65558
0.64481
0.65558
0.64481
0.66047
0.66536
0.65558
0.66047
0.63503
0.64971
0.63503
0.65558
0.67025
0.63503
0.67515
0.68982
0.72505
0.71526
0.72994
0.73483
0.77006
0.81018
0.7955
0.7407
0.71037
0.72016
0.66047
0.63992
0.65558
0.65558
0.68493
0.72505
0.68982
0.72505
0.70059
0.8953
0.99511
0.96086
0.87573
0.81018
0.77495
0.67515
0.70059
0.69472
0.70548
0.70548
0.64971
0.68493
0.71526
0.72505
0.67025
0.64481
0.71037
0.68493
0.72505
0.7456
0.75049
0.65558
0.72994
0.7456
0.70548
0.7407
0.71526
0.72994
0.71526
0.7407
0.72505
0.76027
0.7407
0.72505
0.79061
0.80039
0.75049
0.78571
0.76517
0.75538
0.80039
0.76027
0.81018
0.76517
0.77006
0.72016
0.7955
0.7456
0.75049
0.7407
0.72994
0.71526
0.75538
0.72016
0.75049
0.72505
0.66536
0.71526
0.70059
0.72016
0.71526
0.70059
0.71037
0.68004
0.71037
0.72505
0.68004
0.81507
0.77495
0.71037
0.77984
0.73483
0.80039
0.8454
0.77495
0.8454
0.77495
0.7955
0.67515
0.72016
0.70548
0.63992
0.76027
0.70548
0.66536
0.7407
0.68982
0.90509
0.9501
0.88063
0.84051
0.77495
0.72016
0.65558
0.61546
0.57534
0.5499
0.59491
0.52544
0.51957
0.53033
0.48043
0.51957
0.53523
0.49022
0.48532
0.48532
0.50978
0.47456
0.48532
0.43542
0.49022
0.46967
0.44521
0.47456
0.45988
0.46967
0.48532
0.49511
0.48043
0.51468
0.49511
0.53033
0.53523
0.48532
0.52544
0.53523
0.52544
0.5499
0.51468
0.53523
0.51957
0.51468
0.53523
0.52544
0.50978
0.48043
0.47456
0.52544
0.48532
0.49022
0.50489
0.48532
0.49022
0.45988
0.46967
0.4501
0.49022
0.46967
0.48043
0.46477
0.46967
0.48532
0.48532
0.48043
0.48532
0.46967
0.51957
0.54012
0.53523
0.55479
0.59002
0.62035
0.62524
0.6047
0.57045
0.52544
0.48043
0.44521
0.41977
0.40998
0.41977
0.3953
0.42466
0.40998
0.43542
0.42955
0.57534
0.69472
0.67515
0.59002
0.49022
0.52544
0.43542
0.40998
0.37965
0.4002
0.36008
0.37476
0.37965
0.3953
0.38454
0.38943
0.3953
0.38454
0.41977
0.40509
0.41487
0.40509
0.41977
0.41487
0.42466
0.40998
0.43542
0.4501
0.41977
0.44031
0.45499
0.46477
0.49022
0.47456
0.49511
0.51468
0.48043
0.51468
0.52544
0.53033
0.53523
0.54501
0.53523
0.55479
0.56458
0.55479
0.52544
0.56458
0.55969
0.56458
0.55969
0.55969
0.55969
0.5499
0.54012
0.5499
0.53033
0.55479
0.5499
0.54012
0.54012
0.55479
0.5499
0.53523
0.55479
0.53523
0.54012
0.5499
0.55969
0.54501
0.54012
0.55479
0.55969
0.5499
0.54501
0.59491
0.61057
0.61546
0.64481
0.64481
0.70059
0.71526
0.68004
0.62035
0.57534
0.54012
0.50489
0.49022
0.49022
0.48532
0.48043
0.49022
0.49022
0.49022
0.51957
0.71526
0.75538
0.70548
0.62035
0.55969
0.56458
0.46477
0.45988
0.45499
0.43542
0.44521
0.43542
0.42955
0.41977
0.44031
0.44521
0.45499
0.45988
0.44521
0.46477
0.46477
0.4501
0.44521
0.45988
0.44031
0.45988
0.45499
0.46967
0.46477
0.50978
0.51957
0.53033
0.52544
0.53523
0.54012
0.5499
0.53033
0.55969
0.55479
0.56458
0.58513
0.57534
0.58513
0.58023
0.59002
0.59491
0.58513
0.59491
0.59002
0.59002
0.61057
0.5998
0.6047
0.59002
0.58513
0.59002
0.58513
0.58023
0.55969
0.57534
0.58513
0.59002
0.58513
0.58023
0.58513
0.58023
0.58513
0.58023
0.57045
0.58513
0.58513
0.58513
0.61546
0.65558
0.66047
0.65558
0.68004
0.68004
0.72994
0.7456
0.70548
0.66536
0.59491
0.57045
0.54501
0.54501
0.53523
0.54012
0.54501
0.53523
0.55479
0.54501
0.5998
0.79061
0.81996
0.77006
0.66536
0.61057
0.55969
0.50978
0.49022
0.48532
0.49022
0.49022
0.49511
0.49022
0.49511
0.49022
0.49511
0.48043
0.49511
0.50489
0.50489
0.5
0.49022
0.49511
0.49511
0.50489
0.49022
0.5
0.51468
0.51957
0.53033
0.53523
0.5499
0.55969
0.56458
0.57045
0.57534
0.58023
0.58023
0.59002
0.58023
0.58513
0.57534
0.59491
0.61057
0.6047
0.61057
0.6047
0.61057
0.61546
0.59491
0.58513
0.5998
0.59491
0.59491
0.58513
0.58513
0.58513
0.59491
0.58513
0.59002
0.58023
0.57534
0.57045
0.58023
0.58023
0.58513
0.58023
0.57045
0.58513
0.58513
0.57534
0.58513
0.59491
0.63014
0.64481
0.65558
0.67025
0.68493
0.72505
0.7407
0.70548
0.67025
0.61057
0.55969
0.53523
0.53523
0.53523
0.52544
0.53523
0.53033
0.53523
0.54501
0.59491
0.78571
0.81996
0.76517
0.66047
0.59002
0.54012
0.5
0.50978
0.49511
0.48532
0.48043
0.49022
0.49022
0.48532
0.48043
0.47456
0.49511
0.49022
0.49511
0.49022
0.49022
0.49022
0.49022
0.49022
0.49511
0.49022
0.49022
0.51468
0.51468
0.50978
0.51957
0.53033
0.54501
0.5499
0.55479
0.56458
0.57045
0.57534
0.57045
0.57534
0.57534
0.58513
0.58513
0.59491
0.59002
0.6047
0.5998
0.6047
0.5998
0.61057
0.59491
0.5998
0.6047
0.6047
0.5998
0.59491
0.59002
0.59491
0.58513
0.59491
0.59002
0.59491
0.59002
0.59491
0.59491
0.5998
0.5998
0.5998
0.5998
0.5998
0.61057
0.64481
0.65558
0.65558
0.68004
0.68493
0.72016
0.75049
0.7456
0.68982
0.62524
0.57534
0.55479
0.55969
0.55479
0.55969
0.55969
0.55969
0.55479
0.56458
0.55969
0.77006
0.84051
0.81996
0.72016
0.61546
0.57045
0.51957
0.52544
0.50978
0.5
0.5
0.5
0.50489
0.49022
0.50489
0.50978
0.50978
0.50489
0.5
0.51468
0.51468
0.50489
0.50489
0.5
0.49511
0.50978
0.50489
0.51468
0.53523
0.54501
0.54501
0.55479
0.55969
0.58513
0.58513
0.59491
0.58513
0.58513
0.58513
0.59491
0.59002
0.5998
0.6047
0.61057
0.61057
0.6047
0.61057
0.6047
0.59002
0.6047
0.6047
0.5998
0.59491
0.6047
0.6047
0.59491
0.59491
0.59002
0.59491
0.58513
0.6047
0.59002
0.5998
0.6047
0.59002
0.59491
0.6047
0.59491
0.59491
0.59491
0.6047
0.64971
0.66047
0.66536
0.67515
0.68982
0.72505
0.7456
0.73483
0.68493
0.63014
0.5998
0.57045
0.5499
0.54012
0.54501
0.54012
0.55479
0.55479
0.56458
0.55969
0.77495
0.84051
0.81018
0.71037
0.59002
0.5998
0.50489
0.51957
0.50489
0.50978
0.49511
0.50978
0.5
0.50978
0.5
0.51468
0.5
0.50978
0.49511
0.50978
0.51468
0.50489
0.51468
0.50978
0.51468
0.50489
0.51468
0.50978
0.53033
0.53033
0.54501
0.55479
0.55969
0.57045
0.58023
0.57534
0.58023
0.58023
0.57534
0.57534
0.58023
0.58513
0.59002
0.58513
0.5998
0.6047
0.6047
0.6047
0.6047
0.61057
0.6047
0.61546
0.61057
0.6047
0.6047
0.61057
0.61057
0.61057
0.61057
0.61057
0.61057
0.61057
0.61546
0.62524
0.62035
0.62524
0.62524
0.63014
0.62035
0.63503
0.66536
0.69472
0.69472
0.70548
0.71037
0.73483
0.77006
0.77984
0.7407
0.68493
0.63014
0.6047
0.58513
0.57534
0.57534
0.58023
0.57045
0.57045
0.59002
0.58513
0.68982
0.85519
0.86497
0.77984
0.65558
0.6047
0.53523
0.52544
0.54501
0.53523
0.53033
0.52544
0.52544
0.51957
0.52544
0.53033
0.52544
0.53523
0.53033
0.53523
0.53523
0.53523
0.53523
0.53033
0.53523
0.53523
0.54012
0.54501
0.5499
0.56458
0.56458
0.58513
0.58513
0.59491
0.6047
0.61057
0.61057
0.61057
0.61546
0.61057
0.61057
0.61546
0.62035
0.62524
0.63014
0.62524
0.63014
0.62524
0.63014
0.62524
0.63014
0.63014
0.63014
0.62035
0.62035
0.62035
0.62035
0.61057
0.61546
0.61057
0.61546
0.61546
0.62035
0.61546
0.62035
0.61057
0.61546
0.62524
0.61546
0.62035
0.62524
0.65558
0.68493
0.68982
0.68493
0.70548
0.71526
0.75049
0.77006
0.75538
0.70059
0.64971
0.61057
0.58513
0.57045
0.57534
0.56458
0.57534
0.57045
0.58023
0.59002
0.58513
0.81996
0.86008
0.81018
0.69472
0.5998
0.55479
0.52544
0.54012
0.53523
0.52544
0.52544
0.52544
0.53523
0.53033
0.53523
0.53033
0.53033
0.53523
0.54501
0.54012
0.54012
0.53523
0.54012
0.53523
0.5499
0.54012
0.5499
0.55969
0.56458
0.57534
0.58023
0.59491
0.5998
0.61057
0.61057
0.62524
0.61057
0.63014
0.62035
0.63014
0.63014
0.63014
0.63503
0.62524
0.63503
0.63014
0.64481
0.63503
0.64481
0.63014
0.63503
0.62524
0.63014
0.62035
0.63014
0.61546
0.62524
0.61057
0.61546
0.61057
0.61057
0.61057
0.61546
0.6047
0.61057
0.5998
0.6047
0.61057
0.6047
0.5998
0.62524
0.66047
0.66047
0.66536
0.67025
0.68493
0.72505
0.7407
0.72016
0.68982
0.63503
0.59002
0.56458
0.5499
0.54501
0.5499
0.54501
0.54501
0.5499
0.57045
0.56458
0.77006
0.83072
0.7955
0.67515
0.56458
0.53523
0.50489
0.52544
0.51468
0.50489
0.5
0.50978
0.50978
0.50978
0.51468
0.51468
0.51468
0.51957
0.51468
0.51957
0.51468
0.51957
0.51957
0.51957
0.51957
0.52544
0.51957
0.53033
0.53033
0.54501
0.55479
0.55969
0.56458
0.57534
0.58023
0.58513
0.59002
0.58513
0.59002
0.59002
0.59491
0.6047
0.61057
0.61057
0.61546
0.61057
0.62035
0.61057
0.61057
0.6047
0.61057
0.61057
0.6047
0.5998
0.6047
0.59002
0.59491
0.5998
0.6047
0.5998
0.59491
0.59002
0.6047
0.6047
0.59002
0.59491
0.5998
0.6047
0.59491
0.61057
0.6047
0.62524
0.64971
0.66047
0.67025
0.68982
0.70059
0.7456
0.75049
0.72994
0.67515
0.62524
0.58513
0.56458
0.5499
0.54501
0.54501
0.5499
0.5499
0.56458
0.55969
0.62524
0.80528
0.82485
0.77495
0.66047
0.6047
0.54501
0.51957
0.53033
0.50978
0.50978
0.50489
0.50978
0.50978
0.50978
0.51468
0.50978
0.50978
0.51468
0.50978
0.51468
0.51468
0.51957
0.51468
0.51957
0.51468
0.51468
0.51957
0.53523
0.54012
0.5499
0.55969
0.57045
0.58023
0.58513
0.59002
0.5998
0.6047
0.61057
0.61057
0.61057
0.61546
0.62524
0.63014
0.62524
0.63014
0.62524
0.63014
0.63014
0.63503
0.63992
0.63014
0.62524
0.63014
0.63014
0.62524
0.63014
0.62524
0.62035
0.61546
0.61546
0.61057
0.61057
0.62035
0.61546
0.62035
0.61057
0.61057
0.62035
0.61057
0.63503
0.66536
0.67515
0.67025
0.70059
0.71037
0.75049
0.75538
0.7407
0.68982
0.64971
0.59491
0.58023
0.55969
0.55969
0.55969
0.55969
0.55479
0.56458
0.57534
0.56458
0.80039
0.84051
0.80528
0.68982
0.58513
0.53523
0.50489
0.51468
0.51468
0.50978
0.50978
0.50978
0.50978
0.50489
0.50978
0.5
0.51468
0.51468
0.51957
0.51468
0.51468
0.51468
0.51468
0.51468
0.52544
0.52544
0.53033
0.53033
0.54012
0.55479
0.55969
0.55969
0.57534
0.58023
0.58513
0.58513
0.58513
0.59002
0.58513
0.59002
0.58513
0.59002
0.59002
0.59491
0.59491
0.61057
0.61057
0.61057
0.61057
0.61057
0.5998
0.5998
0.59491
0.59002
0.58513
0.59002
0.59491
0.58513
0.59002
0.58513
0.58023
0.58513
0.59002
0.58513
0.58513
0.58023
0.59491
0.6047
0.63014
0.63992
0.65558
0.66047
0.67025
0.69472
0.73483
0.72505
0.69472
0.63992
0.59002
0.57045
0.55479
0.54501
0.53523
0.54012
0.53523
0.54012
0.55479
0.55969
0.69472
0.82485
0.81018
0.71526
0.57534
0.54501
0.49022
0.51957
0.51468
0.50489
0.5
0.50489
0.50489
0.51468
0.51468
0.51468
0.51468
0.51468
0.51957
0.51957
0.52544
0.51957
0.53033
0.52544
0.53033
0.53033
0.53033
0.53033
0.53523
0.53523
0.55479
0.55969
0.57045
0.57045
0.58513
0.58513
0.58513
0.58023
0.57534
0.57534
0.58513
0.58513
0.58513
0.58513
0.59491
0.59491
0.59002
0.5998
0.6047
0.61057
0.5998
0.6047
0.59491
0.5998
0.5998
0.6047
0.5998
0.59491
0.58513
0.58513
0.58513
0.58513
0.58513
0.58513
0.58513
0.58513
0.59002
0.58513
0.5998
0.63503
0.64971
0.65558
0.66047
0.67025
0.69472
0.73483
0.7407
0.70059
0.64971
0.6047
0.57534
0.5499
0.54501
0.54012
0.54012
0.53523
0.54012
0.55479
0.5499
0.64971
0.81507
0.82485
0.7407
0.61057
0.55969
0.49511
0.50978
0.51468
0.49511
0.50978
0.49511
0.51468
0.50978
0.51957
0.50978
0.51468
0.50978
0.51957
0.50978
0.51468
0.51957
0.50978
0.51468
0.50978
0.51957
0.51468
0.53033
0.52544
0.54012
0.5499
0.55969
0.55969
0.57045
0.57534
0.58513
0.58023
0.58513
0.58513
0.58513
0.58513
0.59002
0.59491
0.5998
0.5998
0.5998
0.6047
0.61057
0.61057
0.6047
0.5998
0.5998
0.5998
0.6047
0.5998
0.59491
0.5998
0.5998
0.59002
0.58513
0.59002
0.58513
0.59002
0.58513
0.58513
0.58513
0.58513
0.59002
0.63503
0.64971
0.65558
0.66047
0.68004
0.69472
0.72994
0.72016
0.70059
0.64481
0.59491
0.57045
0.5499
0.53523
0.53523
0.54012
0.54012
0.54012
0.55969
0.5499
0.66047
0.81507
0.81996
0.72994
0.59491
0.5499
0.49022
0.51468
0.50978
0.50489
0.50489
0.51468
0.50978
0.51468
0.51468
0.51468
0.50978
0.51468
0.51957
0.51468
0.53033
0.53033
0.53033
0.52544
0.53033
0.53033
0.53523
0.53033
0.54501
0.55479
0.55969
0.56458
0.58513
0.58513
0.58513
0.59002
0.59491
0.59002
0.5998
0.59491
0.59491
0.5998
0.59491
0.61057
0.61546
0.61057
0.61057
0.62035
0.61546
0.62035
0.61057
0.61546
0.61057
0.61546
0.61057
0.61057
0.6047
0.6047
0.59002
0.59491
0.59002
0.59002
0.58513
0.59002
0.58023
0.58513
0.58023
0.58023
0.58513
0.62035
0.63503
0.63503
0.64971
0.65558
0.68004
0.71526
0.72016
0.68493
0.63503
0.58513
0.55969
0.53523
0.53033
0.52544
0.53033
0.53033
0.53033
0.54501
0.55479
0.65558
0.81018
0.80528
0.70548
0.58023
0.54012
0.48532
0.50978
0.51468
0.50489
0.49511
0.5
0.50978
0.50489
0.51468
0.51468
0.51468
0.51468
0.51957
0.51468
0.51957
0.51468
0.51957
0.51468
0.51957
0.51957
0.53033
0.53523
0.53523
0.54501
0.55479
0.57045
0.57534
0.58023
0.58513
0.58513
0.58513
0.58513
0.58513
0.58513
0.59002
0.59491
0.59491
0.5998
0.5998
0.61057
0.61057
0.61057
0.6047
0.61057
0.6047
0.5998
0.6047
0.5998
0.6047
0.59002
0.5998
0.59002
0.59491
0.58513
0.59491
0.59002
0.59491
0.58513
0.59491
0.58513
0.59491
0.58513
0.59002
0.59491
0.61057
0.63503
0.64971
0.64971
0.67515
0.68493
0.70548
0.7456
0.75049
0.70548
0.64971
0.6047
0.57045
0.55479
0.5499
0.54501
0.5499
0.54501
0.54012
0.56458
0.55969
0.71526
0.81996
0.81507
0.71526
0.5998
0.57045
0.51468
0.52544
0.51468
0.5
0.50978
0.5
0.50489
0.5
0.5
0.50489
0.50978
0.51468
0.50978
0.51468
0.51468
0.51957
0.50489
0.50489
0.50978
0.52544
0.52544
0.53033
0.53523
0.54501
0.55969
0.57045
0.57534
0.58513
0.59002
0.61057
0.6047
0.61057
0.6047
0.61057
0.61057
0.61057
0.61546
0.63014
0.63503
0.63014
0.63992
0.64481
0.63992
0.63992
0.64481
0.64481
0.64971
0.63503
0.63992
0.63014
0.63503
0.63014
0.63014
0.62524
0.63014
0.62524
0.62035
0.61057
0.61546
0.61057
0.61057
0.61546
0.63503
0.67025
0.67515
0.68493
0.68982
0.70548
0.7407
0.77006
0.75049
0.70548
0.65558
0.61546
0.58513
0.57534
0.57045
0.56458
0.55969
0.57045
0.57534
0.58513
0.58023
0.77495
0.84051
0.81996
0.71037
0.59491
0.54501
0.50978
0.53523
0.53033
0.51468
0.51468
0.51957
0.51468
0.52544
0.51957
0.52544
0.52544
0.53523
0.53033
0.53523
0.52544
0.53033
0.53033
0.53523
0.53523
0.53523
0.53523
0.54012
0.54501
0.55969
0.58023
0.58513
0.58513
0.59491
0.5998
0.59491
0.5998
0.5998
0.61057
0.61057
0.61057
0.61057
0.62035
0.62035
0.62035
0.62524
0.62524
0.63014
0.63014
0.63014
0.63014
0.63014
0.63014
0.62524
0.63014
0.62524
0.62035
0.61546
0.61546
0.61057
0.61546
0.62035
0.61546
0.61057
0.6047
0.61057
0.61057
0.61057
0.62035
0.66536
0.68004
0.68004
0.68982
0.70548
0.7456
0.77006
0.7456
0.70548
0.64971
0.61057
0.58513
0.55969
0.56458
0.55969
0.55969
0.5499
0.56458
0.57534
0.58023
0.72994
0.83562
0.81996
0.72505
0.58513
0.56458
0.50978
0.53523
0.52544
0.51957
0.51468
0.50978
0.51468
0.51957
0.51957
0.52544
0.51957
0.51468
0.51957
0.51957
0.51957
0.51468
0.51957
0.51468
0.51957
0.51468
0.52544
