0.70898
0.71484
0.71484
0.71484
0.71484
0.71484
0.71484
0.7207
0.73438
0.7207
0.62891
0.46094
0.37109
0.44922
0.58398
0.66406
0.69531
0.70898
0.71484
0.71484
0.71484
0.71484
0.71484
0.70898
0.70508
0.69922
0.69922
0.69531
0.68945
0.67969
0.66992
0.66016
0.6543
0.64453
0.63477
0.625
0.61523
0.60938
0.60938
0.61523
0.62891
0.65039
0.66992
0.68555
0.69531
0.70508
0.70898
0.71484
0.71484
0.71484
0.7207
0.7207
0.7207
0.7207
0.71484
0.71484
0.70898
0.70898
0.70898
0.70898
0.71484
0.70898
0.70898
0.70898
0.70898
0.71484
0.71484
0.71484
0.7207
0.7207
0.71484
0.71484
0.71484
0.71484
0.71484
0.71484
0.71484
0.70898
0.70898
0.69922
0.69531
0.68555
0.68555
0.68945
0.69531
0.69531
0.70508
0.71484
0.7207
0.72461
0.72461
0.7207
0.7207
0.72461
0.73438
0.74023
0.67969
0.53516
0.40039
0.39063
0.55078
0.65039
0.68945
0.69922
0.70898
0.7207
0.7207
0.7207
0.7207
0.71484
0.70898
0.69922
0.69922
0.69531
0.68945
0.68555
0.67969
0.66992
0.66016
0.65039
0.63477
0.625
0.61523
0.60547
0.60547
0.60938
0.61523
0.62891
0.6543
0.67578
0.68945
0.70508
0.71484
0.7207
0.72461
0.73047
0.73438
0.73438
0.73438
0.73438
0.73438
0.73438
0.73438
0.73047
0.72461
0.72461
0.72461
0.72461
0.72461
0.7207
0.7207
0.7207
0.7207
0.71484
0.71484
0.71484
0.71484
0.7207
0.7207
0.7207
0.7207
0.71484
0.71484
0.70898
0.70508
0.69922
0.69531
0.68945
0.68555
0.68555
0.68945
0.68945
0.69531
0.69922
0.70898
0.70898
0.70898
0.70898
0.70898
0.70898
0.7207
0.72461
0.67969
0.55078
0.4043
0.38086
0.5293
0.64453
0.69531
0.70508
0.70898
0.70898
0.71484
0.71484
0.70898
0.70898
0.69922
0.69531
0.68945
0.68555
0.67969
0.67578
0.66406
0.66016
0.65039
0.64453
0.62891
0.61914
0.60938
0.59961
0.5957
0.5957
0.60938
0.625
0.64453
0.66406
0.67969
0.69531
0.70508
0.71484
0.7207
0.7207
0.72461
0.7207
0.7207
0.7207
0.7207
0.71484
0.71484
0.70898
0.70898
0.70898
0.70898
0.70898
0.70898
0.70898
0.70898
0.71484
0.71484
0.71484
0.71484
0.71484
0.70898
0.70898
0.70898
0.70898
0.71484
0.71484
0.70898
0.70898
0.70508
0.69922
0.69531
0.68555
0.67969
0.68555
0.68945
0.69531
0.69922
0.70508
0.70898
0.71484
0.70898
0.70898
0.70898
0.70898
0.7207
0.72461
0.66016
0.5
0.375
0.37109
0.54492
0.65039
0.68945
0.69922
0.69922
0.70508
0.70898
0.70898
0.70508
0.69922
0.69531
0.69531
0.69531
0.68945
0.67969
0.66992
0.66406
0.66016
0.65039
0.64063
0.62891
0.61523
0.59961
0.5957
0.5957
0.59961
0.60938
0.62891
0.65039
0.66992
0.68555
0.69531
0.70508
0.70898
0.71484
0.71484
0.71484
0.71484
0.71484
0.71484
0.70898
0.70898
0.70508
0.70898
0.70898
0.70898
0.70898
0.71484
0.70898
0.70898
0.70898
0.70508
0.70508
0.70508
0.70898
0.70898
0.70898
0.70898
0.70898
0.70898
0.70898
0.70898
0.70898
0.70898
0.69922
0.69922
0.69531
0.68555
0.67969
0.67969
0.68555
0.68555
0.68945
0.69531
0.70508
0.70898
0.70898
0.70898
0.69922
0.69922
0.70508
0.7207
0.69922
0.58984
0.43555
0.375
0.4707
0.5957
0.66016
0.68945
0.69922
0.70898
0.71484
0.7207
0.7207
0.71484
0.71484
0.71484
0.70898
0.70898
0.70508
0.69922
0.69531
0.68555
0.67578
0.66016
0.65039
0.64063
0.62891
0.61914
0.61523
0.60938
0.61523
0.62891
0.64453
0.66406
0.68555
0.69922
0.70898
0.7207
0.72461
0.72461
0.72461
0.72461
0.72461
0.7207
0.7207
0.7207
0.7207
0.7207
0.7207
0.7207
0.7207
0.7207
0.7207
0.7207
0.7207
0.72461
0.72461
0.72461
0.72461
0.72461
0.72461
0.72461
0.72461
0.72461
0.72461
0.72461
0.72461
0.7207
0.71484
0.71484
0.70898
0.69531
0.68945
0.68945
0.68945
0.69531
0.69922
0.70508
0.71484
0.71484
0.7207
0.7207
0.7207
0.7207
0.7207
0.73438
0.7207
0.62891
0.47461
0.38477
0.46094
0.5957
0.67969
0.70508
0.70898
0.70898
0.71484
0.71484
0.7207
0.71484
0.71484
0.70898
0.70508
0.69922
0.69531
0.69531
0.68945
0.68555
0.67578
0.66406
0.65039
0.63477
0.61914
0.60938
0.60547
0.60547
0.60938
0.625
0.64063
0.66016
0.67969
0.69531
0.70898
0.7207
0.72461
0.72461
0.72461
0.72461
0.7207
0.7207
0.7207
0.7207
0.7207
0.72461
0.72461
0.7207
0.7207
0.7207
0.71484
0.71484
0.71484
0.71484
0.71484
0.71484
0.71484
0.7207
0.7207
0.7207
0.7207
0.7207
0.71484
0.71484
0.7207
0.71484
0.71484
0.71484
0.70898
0.69922
0.69531
0.69531
0.69922
0.70508
0.70508
0.71484
0.72461
0.73047
0.73047
0.73047
0.73047
0.73047
0.73438
0.74414
0.73047
0.63477
0.48047
0.39453
0.48438
0.61914
0.69922
0.72461
0.72461
0.73047
0.73438
0.73438
0.73438
0.73438
0.73047
0.72461
0.7207
0.71484
0.71484
0.70898
0.69922
0.69531
0.68555
0.67578
0.66016
0.65039
0.63477
0.625
0.61914
0.61523
0.625
0.63477
0.6543
0.67578
0.69531
0.71484
0.72461
0.73047
0.73438
0.74023
0.74023
0.74023
0.74414
0.74414
0.74414
0.74023
0.73438
0.73438
0.73438
0.73438
0.73438
0.74023
0.74023
0.73438
0.73438
0.73438
0.73438
0.73438
0.73438
0.73438
0.73438
0.74023
0.73438
0.73438
0.73438
0.73438
0.73438
0.72461
0.72461
0.72461
0.7207
0.70898
0.70508
0.70508
0.70508
0.69922
0.70898
0.7207
0.72461
0.73438
0.73438
0.73438
0.73438
0.73047
0.73438
0.75
0.73438
0.64453
0.48438
0.4043
0.49023
0.61914
0.69531
0.7207
0.72461
0.73438
0.73438
0.74023
0.74023
0.73438
0.73047
0.72461
0.7207
0.7207
0.71484
0.70898
0.69922
0.68945
0.67969
0.66992
0.6543
0.64453
0.62891
0.61914
0.61523
0.61523
0.61523
0.625
0.64453
0.66406
0.67969
0.69531
0.70898
0.7207
0.72461
0.72461
0.72461
0.72461
0.73047
0.73047
0.73047
0.72461
0.73047
0.72461
0.72461
0.72461
0.72461
0.72461
0.72461
0.72461
0.72461
0.72461
0.7207
0.7207
0.7207
0.7207
0.7207
0.7207
0.7207
0.72461
0.72461
0.72461
0.72461
0.7207
0.71484
0.71484
0.70898
0.69922
0.69531
0.69531
0.69922
0.69922
0.70898
0.71484
0.7207
0.72461
0.72461
0.72461
0.72461
0.7207
0.72461
0.73438
0.71484
0.61914
0.46094
0.39063
0.47461
0.60547
0.67578
0.69531
0.70898
0.71484
0.7207
0.7207
0.7207
0.7207
0.7207
0.71484
0.70898
0.69922
0.69531
0.69531
0.68945
0.67969
0.67578
0.66992
0.6543
0.63477
0.625
0.61523
0.60938
0.60938
0.60938
0.625
0.64063
0.66016
0.67578
0.69531
0.70898
0.71484
0.7207
0.7207
0.7207
0.7207
0.7207
0.7207
0.71484
0.71484
0.71484
0.7207
0.71484
0.71484
0.70898
0.70898
0.70898
0.70898
0.71484
0.71484
0.71484
0.71484
0.7207
0.7207
0.7207
0.7207
0.7207
0.7207
0.7207
0.7207
0.72461
0.72461
0.7207
0.71484
0.70898
0.69531
0.68945
0.68945
0.68945
0.69531
0.69922
0.70898
0.71484
0.7207
0.7207
0.7207
0.7207
0.7207
0.72461
0.73438
0.69922
0.57422
0.42578
0.39063
0.52539
0.64453
0.70508
0.71484
0.7207
0.7207
0.7207
0.7207
0.71484
0.71484
0.71484
0.71484
0.70898
0.70508
0.69922
0.69531
0.68555
0.67578
0.66406
0.6543
0.64453
0.62891
0.61523
0.60547
0.60547
0.60547
0.60938
0.625
0.64063
0.66406
0.67969
0.69531
0.70508
0.71484
0.7207
0.72461
0.72461
0.72461
0.72461
0.72461
0.72461
0.72461
0.7207
0.7207
0.7207
0.7207
0.7207
0.7207
0.72461
0.72461
0.72461
0.7207
0.7207
0.7207
0.7207
0.7207
0.7207
0.72461
0.72461
0.72461
0.72461
0.72461
0.72461
0.7207
0.71484
0.70898
0.69922
0.69531
0.69531
0.69531
0.69531
0.69531
0.69922
0.70898
0.71484
0.7207
0.7207
0.71484
0.71484
0.7207
0.73047
0.73438
0.65039
0.49414
0.39063
0.44922
0.58398
0.67969
0.70508
0.70898
0.71484
0.7207
0.7207
0.7207
0.7207
0.71484
0.71484
0.70898
0.70898
0.69922
0.69531
0.68945
0.67969
0.67578
0.66016
0.65039
0.64063
0.625
0.61523
0.60938
0.60938
0.60938
0.625
0.64063
0.6543
0.67578
0.69531
0.70898
0.7207
0.72461
0.73047
0.73047
0.72461
0.72461
0.72461
0.72461
0.72461
0.72461
0.72461
0.72461
0.7207
0.7207
0.71484
0.71484
0.71484
0.71484
0.7207
0.7207
0.71484
0.71484
0.71484
0.71484
0.71484
0.7207
0.7207
0.7207
0.7207
0.7207
0.71484
0.70898
0.69922
0.69531
0.68945
0.68945
0.68945
0.68945
0.68945
0.69531
0.70898
0.71484
0.71484
0.71484
0.71484
0.71484
0.7207
0.73047
0.73438
0.66992
0.52539
0.39453
0.38477
0.53906
0.64453
0.68945
0.69922
0.70508
0.70898
0.71484
0.71484
0.70898
0.70898
0.70898
0.70508
0.69922
0.69531
0.68945
0.67969
0.67578
0.66992
0.66016
0.65039
0.63477
0.625
0.61523
0.60547
0.60547
0.60938
0.61914
0.62891
0.65039
0.66992
0.68555
0.69531
0.70508
0.70898
0.71484
0.71484
0.71484
0.71484
0.71484
0.71484
0.71484
0.70898
0.70898
0.70898
0.70898
0.70898
0.70898
0.70508
0.69922
0.70508
0.70508
0.70508
0.70508
0.70508
0.70898
0.70898
0.70898
0.70898
0.70898
0.70898
0.70898
0.70898
0.70898
0.70898
0.69922
0.68945
0.68555
0.67969
0.67969
0.68555
0.68945
0.69531
0.69922
0.70898
0.71484
0.71484
0.71484
0.71484
0.71484
0.7207
0.73047
0.70508
0.59961
0.43945
0.39063
0.48438
0.61523
0.67969
0.69531
0.69922
0.70898
0.71484
0.7207
0.71484
0.71484
0.70898
0.70508
0.69922
0.69922
0.69531
0.68945
0.67969
0.67578
0.66406
0.6543
0.64453
0.63477
0.625
0.61523
0.60938
0.60547
0.61523
0.625
0.64063
0.6543
0.67578
0.68945
0.69922
0.70898
0.71484
0.71484
0.7207
0.7207
0.7207
0.71484
0.71484
0.71484
0.70898
0.70898
0.70898
0.70898
0.70898
0.70898
0.70898
0.70508
0.69922
0.69922
0.69922
0.70508
0.70898
0.70898
0.70898
0.70898
0.71484
0.70898
0.70898
0.70898
0.70898
0.70508
0.69922
0.69531
0.68945
0.68555
0.67969
0.67969
0.67969
0.67969
0.69531
0.70508
0.70898
0.71484
0.71484
0.71484
0.71484
0.7207
0.73047
0.70898
0.60938
0.45508
0.39063
0.48438
0.61523
0.68555
0.69922
0.70898
0.70898
0.71484
0.71484
0.70898
0.70898
0.70508
0.69922
0.69922
0.69531
0.68945
0.68945
0.67969
0.66992
0.66016
0.65039
0.63477
0.61914
0.60938
0.60547
0.59961
0.59961
0.60938
0.61914
0.63477
0.6543
0.66992
0.68945
0.70508
0.71484
0.7207
0.72461
0.73047
0.72461
0.72461
0.7207
0.7207
0.72461
0.7207
0.7207
0.71484
0.71484
0.71484
0.71484
0.70898
0.71484
0.71484
0.71484
0.71484
0.71484
0.71484
0.71484
0.70898
0.70898
0.70898
0.70898
0.70898
0.70898
0.70898
0.69922
0.69531
0.68945
0.67969
0.67578
0.66992
0.66992
0.66992
0.67578
0.68555
0.69531
0.69922
0.69922
0.69922
0.70508
0.70898
0.71484
0.72461
0.73047
0.66406
0.51953
0.39063
0.38477
0.55078
0.6543
0.69531
0.69922
0.70898
0.70898
0.70898
0.70898
0.70898
0.70508
0.69922
0.69922
0.69531
0.69531
0.68945
0.67969
0.67578
0.66406
0.6543
0.64453
0.63477
0.625
0.60938
0.60547
0.59961
0.59961
0.60938
0.625
0.64453
0.66406
0.68555
0.69531
0.70508
0.70898
0.71484
0.71484
0.71484
0.71484
0.7207
0.71484
0.71484
0.71484
0.71484
0.70898
0.70898
0.70898
0.70898
0.70898
0.70898
0.70898
0.70898
0.70898
0.70898
0.70898
0.70898
0.71484
0.71484
0.70898
0.70898
0.70898
0.70508
0.69922
0.69922
0.69531
0.69531
0.69531
0.68945
0.67969
0.67969
0.67969
0.67969
0.67578
0.67969
0.68945
0.69922
0.70508
0.70898
0.70898
0.70508
0.70898
0.71484
0.7207
0.68555
0.57031
0.41992
0.38086
0.49414
0.60938
0.66406
0.68945
0.69922
0.70898
0.71484
0.71484
0.70898
0.70508
0.69922
0.69922
0.69922
0.69531
0.68945
0.68555
0.67969
0.66992
0.6543
0.64453
0.63477
0.625
0.60938
0.60547
0.59961
0.59961
0.60938
0.61914
0.63477
0.65039
0.66992
0.68945
0.69922
0.70898
0.71484
0.71484
0.71484
0.71484
0.70898
0.70898
0.71484
0.71484
0.71484
0.71484
0.71484
0.71484
0.71484
0.70898
0.70898
0.70898
0.70898
0.70898
0.70898
0.70898
0.70898
0.70898
0.70508
0.70898
0.70898
0.70898
0.70898
0.70898
0.70508
0.69922
0.69531
0.69531
0.68555
0.67578
0.67578
0.67578
0.67969
0.67969
0.68945
0.69922
0.70508
0.70898
0.71484
0.71484
0.70898
0.70898
0.7207
0.71484
0.64453
0.5
0.38477
0.43555
0.56445
0.66016
0.68945
0.69922
0.69922
0.69922
0.70898
0.70898
0.70898
0.70898
0.70508
0.69922
0.69531
0.68945
0.68555
0.67578
0.66992
0.66406
0.6543
0.64453
0.625
0.60938
0.60547
0.59961
0.59961
0.60547
0.61523
0.62891
0.65039
0.66992
0.68555
0.69531
0.70508
0.71484
0.71484
0.7207
0.7207
0.7207
0.7207
0.7207
0.7207
0.71484
0.71484
0.71484
0.71484
0.71484
0.71484
0.71484
0.70898
0.70898
0.70898
0.70898
0.70898
0.71484
0.71484
0.71484
0.70898
0.70898
0.70898
0.70508
0.70508
0.70898
0.70898
0.70508
0.69922
0.69531
0.68945
0.67969
0.67969
0.68945
0.69531
0.69531
0.70898
0.71484
0.71484
0.71484
0.71484
0.71484
0.7207
0.72461
0.74023
0.71484
0.60547
0.43945
0.39063
0.5
0.62891
0.69531
0.70898
0.71484
0.71484
0.71484
0.7207
0.7207
0.71484
0.71484
0.70898
0.70508
0.69922
0.69922
0.69531
0.68945
0.67969
0.66992
0.66016
0.65039
0.64063
0.62891
0.61523
0.60938
0.60938
0.61523
0.62891
0.64453
0.66406
0.68555
0.69922
0.71484
0.7207
0.7207
0.7207
0.7207
0.7207
0.7207
0.72461
0.7207
0.7207
0.7207
0.71484
0.71484
0.71484
0.71484
0.71484
0.71484
0.70898
0.71484
0.71484
0.71484
0.71484
0.71484
0.71484
0.71484
0.71484
0.71484
0.71484
0.71484
0.70898
0.70898
0.70508
0.69922
0.69531
0.69531
0.68945
0.68945
0.68945
0.68555
0.68945
0.69531
0.70508
0.70898
0.71484
0.7207
0.7207
0.7207
0.7207
0.73047
0.73438
0.66406
0.51953
0.40039
0.43555
0.56445
0.66016
0.69531
0.70508
0.70898
0.71484
0.71484
0.71484
0.71484
0.70898
0.70508
0.69922
0.69922
0.69531
0.68945
0.68945
0.68555
0.67578
0.66016
0.65039
0.63477
0.625
0.61914
0.61523
0.60938
0.60938
0.625
0.64063
0.6543
0.67578
0.68945
0.70898
0.7207
0.72461
0.72461
0.73047
0.72461
0.72461
0.7207
0.7207
0.7207
0.72461
0.72461
0.72461
0.7207
0.7207
0.7207
0.7207
0.71484
0.71484
0.71484
0.71484
0.7207
0.7207
0.7207
0.7207
0.71484
0.71484
0.71484
0.71484
0.7207
0.7207
0.7207
0.71484
0.70898
0.70508
0.69922
0.69531
0.68945
0.68945
0.68945
0.69531
0.68945
0.69531
0.69922
0.70898
0.71484
0.7207
0.7207
0.7207
0.7207
0.73438
0.7207
0.64063
0.48438
0.39453
0.46484
0.5957
0.67578
0.70508
0.71484
0.7207
0.7207
0.72461
0.72461
0.72461
0.72461
0.7207
0.71484
0.71484
0.70508
0.69922
0.69531
0.68945
0.67578
0.66992
0.6543
0.64453
0.62891
0.61914
0.61523
0.60938
0.61523
0.62891
0.64453
0.66406
0.68555
0.70508
0.71484
0.7207
0.72461
0.73047
0.73438
0.73438
0.73047
0.73047
0.73438
0.73047
0.72461
0.72461
0.72461
0.72461
0.72461
0.7207
0.7207
0.7207
0.7207
0.7207
0.7207
0.7207
0.7207
0.7207
0.7207
0.7207
0.7207
0.7207
0.7207
0.7207
0.7207
0.7207
0.7207
0.71484
0.70508
0.69531
0.68945
0.68945
0.68945
0.68945
0.69531
0.70508
0.71484
0.7207
0.7207
0.7207
0.7207
0.72461
0.73047
0.74023
0.73047
0.64063
0.48438
0.39453
0.47461
0.61523
0.69531
0.71484
0.7207
0.7207
0.72461
0.72461
0.7207
0.71484
0.71484
0.71484
0.71484
0.70898
0.70898
0.69922
0.69531
0.67969
0.66992
0.6543
0.64453
0.63477
0.625
0.61523
0.60938
0.60938
0.61523
0.625
0.64063
0.66406
0.68555
0.69922
0.71484
0.7207
0.7207
0.72461
0.72461
0.72461
0.72461
0.72461
0.72461
0.72461
0.72461
0.72461
0.7207
0.7207
0.7207
0.7207
0.72461
0.72461
0.7207
0.7207
0.71484
0.71484
0.71484
0.71484
0.7207
0.7207
0.7207
0.7207
0.7207
0.7207
0.71484
0.71484
0.70898
0.70508
0.69922
0.69531
0.68945
0.68555
0.67969
0.67969
0.67969
0.69531
0.69922
0.70898
0.71484
0.7207
0.7207
0.7207
0.7207
0.72461
0.73047
0.66016
0.50586
0.39453
0.43945
0.57422
0.66992
0.69922
0.70898
0.70898
0.71484
0.7207
0.7207
0.71484
0.70898
0.70898
0.70508
0.69922
0.69922
0.69531
0.68945
0.67969
0.66992
0.66016
0.64453
0.62891
0.625
0.61523
0.60938
0.60938
0.60938
0.61523
0.62891
0.65039
0.66406
0.68555
0.69922
0.71484
0.7207
0.72461
0.72461
0.72461
0.72461
0.72461
0.72461
0.7207
0.7207
0.72461
0.72461
0.72461
0.7207
0.7207
0.7207
0.7207
0.7207
0.7207
0.7207
0.7207
0.71484
0.70898
0.70898
0.70898
0.70898
0.71484
0.71484
0.71484
0.70898
0.70898
0.69922
0.69531
0.68945
0.68555
0.67969
0.67969
0.67969
0.67969
0.67969
0.68945
0.69531
0.69922
0.70898
0.70898
0.70898
0.71484
0.71484
0.7207
0.72461
0.68555
0.55469
0.41602
0.38477
0.51953
0.63477
0.68555
0.69531
0.69922
0.70898
0.71484
0.7207
0.7207
0.7207
0.7207
0.71484
0.70508
0.69922
0.69531
0.68945
0.67969
0.67578
0.66406
0.6543
0.64063
0.625
0.61523
0.60938
0.60938
0.60938
0.61914
0.62891
0.65039
0.66992
0.68555
0.69922
0.71484
0.7207
0.72461
0.73047
0.72461
0.72461
0.7207
0.7207
0.7207
0.7207
0.7207
0.7207
0.7207
0.7207
0.7207
0.7207
0.71484
0.70898
0.70898
0.70898
0.70898
0.71484
0.71484
0.7207
0.71484
0.71484
0.71484
0.7207
0.7207
0.7207
0.72461
0.71484
0.70898
0.70898
0.69922
0.69531
0.69531
0.69531
0.69531
0.69922
0.70898
0.71484
0.7207
0.72461
0.72461
0.72461
0.72461
0.73047
0.73438
0.74023
0.71484
0.60547
0.44922
0.4043
0.50977
0.63477
0.69531
0.71484
0.7207
0.7207
0.72461
0.72461
0.72461
0.7207
0.7207
0.71484
0.71484
0.70898
0.69922
0.69531
0.68945
0.67969
0.66992
0.66016
0.64453
0.62891
0.61914
0.60938
0.60547
0.60547
0.60938
0.625
0.64453
0.66992
0.68945
0.70508
0.71484
0.71484
0.7207
0.72461
0.72461
0.72461
0.72461
0.72461
0.72461
0.72461
0.7207
0.71484
0.71484
0.70898
0.70898
0.71484
0.71484
0.71484
0.71484
0.71484
0.70898
0.70898
0.71484
0.71484
0.71484
0.7207
0.7207
0.7207
0.71484
0.71484
0.71484
0.71484
0.70898
0.70508
0.69922
0.68945
0.68555
0.67969
0.67969
0.67969
0.68945
0.69922
0.70898
0.71484
0.71484
0.71484
0.71484
0.71484
0.7207
0.73047
0.73438
0.62891
0.47461
0.38477
0.46094
0.59961
0.68555
0.70898
0.70898
0.71484
0.71484
0.7207
0.7207
0.71484
0.70898
0.70898
0.69922
0.69922
0.69531
0.68945
0.67969
0.66992
0.66016
0.6543
0.64063
0.625
0.61523
0.60938
0.60547
0.60547
0.60547
0.61523
0.62891
0.65039
0.67578
0.68945
0.70508
0.71484
0.7207
0.7207
0.7207
0.7207
0.7207
0.7207
0.7207
0.7207
0.7207
0.7207
0.71484
0.71484
0.71484
0.71484
0.71484
0.71484
0.71484
0.7207
0.7207
0.71484
0.71484
0.71484
0.71484
0.71484
0.7207
0.7207
0.7207
0.71484
0.71484
0.70898
0.70898
0.69922
0.69922
0.69531
0.68945
0.68945
0.68945
0.68555
0.68555
0.68945
0.69922
0.70898
0.71484
0.71484
0.71484
0.71484
0.71484
0.72461
0.72461
0.66992
0.5293
0.40039
0.39063
0.55078
0.6543
0.69531
0.70508
0.70898
0.71484
0.71484
0.7207
0.71484
0.71484
0.70898
0.70508
0.69922
0.69531
0.68945
0.67969
0.67578
0.66406
0.65039
0.63477
0.625
0.61523
0.60938
0.60547
0.59961
0.60547
0.60938
0.625
0.64453
0.66406
0.67969
0.69531
0.69922
0.70898
0.71484
0.7207
0.71484
0.71484
0.71484
0.71484
0.70898
0.70898
0.70898
0.71484
0.71484
0.71484
0.70898
0.70898
0.70898
0.70898
0.70898
0.70898
0.70508
0.70898
0.70898
0.70898
0.70898
0.70508
0.70898
0.70898
0.70898
0.70898
0.70898
0.70898
0.69922
0.69922
0.69531
0.69531
0.68945
0.68945
0.68945
0.68945
0.69531
0.69922
0.70508
0.70898
0.71484
0.71484
0.71484
0.71484
0.7207
0.72461
0.73047
0.67578
0.53906
0.40039
0.39063
0.53516
0.64063
0.68555
0.69531
0.70508
0.70898
0.71484
0.71484
0.71484
0.71484
0.70898
0.70898
0.70508
0.69922
0.69922
0.68945
0.68555
0.67578
0.66992
0.6543
0.64453
0.62891
0.61523
0.60938
0.60938
0.60938
0.61914
0.63477
0.6543
0.67578
0.69531
0.70898
0.71484
0.7207
0.72461
0.73047
0.72461
0.72461
0.72461
0.7207
0.7207
0.7207
0.7207
0.71484
0.71484
0.71484
0.71484
0.70898
0.70898
0.70898
0.71484
0.71484
0.71484
0.71484
0.71484
0.71484
0.71484
0.71484
0.70898
0.70898
0.70898
0.70898
0.71484
0.70898
0.69922
0.69531
0.68945
0.67969
0.67969
0.67969
0.67969
0.68555
0.69531
0.69922
0.70898
0.70898
0.70898
0.70898
0.71484
0.71484
0.72461
0.73047
0.66016
0.51563
0.39453
0.43945
0.57422
0.66992
0.70508
0.71484
0.71484
0.7207
0.71484
0.71484
0.70898
0.70508
0.69922
0.70508
0.70508
0.69922
0.69531
0.68945
0.67969
0.66992
0.6543
0.64453
0.62891
0.61914
0.60938
0.60547
0.60547
0.60547
0.61523
0.62891
0.65039
0.67578
0.69531
0.70898
0.71484
0.7207
0.7207
0.7207
0.7207
0.7207
0.7207
0.7207
0.7207
0.7207
0.71484
0.71484
0.71484
0.71484
0.7207
0.7207
0.7207
0.7207
0.7207
0.7207
0.7207
0.71484
0.71484
0.71484
0.7207
0.7207
0.72461
0.7207
0.7207
0.71484
0.70898
0.70508
0.69922
0.69531
0.68945
0.68945
0.68945
0.68555
0.68555
0.68945
0.69922
0.70898
0.71484
0.71484
0.7207
0.71484
0.71484
0.72461
0.73047
0.68555
0.55469
0.41016
0.38477
0.5293
0.64453
0.69531
0.69922
0.70508
0.70898
0.71484
0.71484
0.70898
0.70898
0.70898
0.69922
0.69531
0.68945
0.68945
0.67969
0.67578
0.66992
0.66016
0.64453
0.63477
0.61523
0.60547
0.59961
0.5957
0.5957
0.60938
0.61914
0.64063
0.6543
0.67969
0.69531
0.70508
0.71484
0.7207
0.7207
0.72461
0.72461
0.72461
0.7207
0.71484
0.71484
0.71484
0.71484
0.7207
0.71484
0.71484
0.71484
0.70898
0.70898
0.70898
0.70898
0.71484
0.71484
0.71484
0.71484
0.71484
0.70898
0.71484
0.71484
0.71484
0.71484
0.70898
0.69922
0.69531
0.68945
0.67969
0.67578
0.67578
0.67969
0.68555
0.68555
0.69531
0.69922
0.70508
0.70508
0.70508
0.70898
0.70898
0.70898
0.7207
0.72461
0.66406
0.52539
0.39453
0.38477
0.53906
0.64453
0.68555
0.69922
0.70508
0.70898
0.70898
0.70898
0.70508
0.69922
0.69922
0.69922
0.69531
0.68945
0.68555
0.67969
0.67578
0.66406
0.66016
0.65039
0.64063
0.625
0.61523
0.60547
0.60547
0.60547
0.61523
0.62891
0.64453
0.66992
0.68945
0.69922
0.70508
0.70898
0.71484
0.71484
0.71484
0.7207
0.7207
0.7207
0.71484
0.71484
0.70898
0.70898
0.70898
0.71484
0.71484
0.71484
0.70898
0.70898
0.70898
0.70898
0.70898
0.70898
0.71484
0.71484
0.71484
0.71484
0.70898
0.70898
0.70898
0.70898
0.70898
0.69922
0.69922
0.69922
0.69531
0.68555
0.67969
0.67969
0.67969
0.67969
0.68945
0.70508
0.71484
0.71484
0.71484
0.71484
0.71484
0.7207
0.72461
0.73438
0.71484
0.61914
0.46484
0.39453
0.47461
0.59961
0.67578
0.69531
0.69922
0.70898
0.71484
0.7207
0.71484
0.71484
0.70898
0.70898
0.70508
0.69922
0.69922
0.69531
0.67969
0.67578
0.66406
0.6543
0.64453
0.62891
0.61523
0.60938
0.60547
0.60547
0.60547
0.61523
0.63477
0.6543
0.67969
0.69531
0.70898
0.7207
0.72461
0.72461
0.72461
0.72461
0.72461
0.72461
0.72461
0.7207
0.7207
0.71484
0.71484
0.70898
0.70898
0.70898
0.70898
0.71484
0.71484
0.71484
0.71484
0.71484
0.70898
0.70898
0.70898
0.71484
0.7207
0.7207
0.7207
0.7207
0.7207
0.71484
0.70898
0.69922
0.69922
0.69531
0.68945
0.68945
0.68945
0.68555
0.68555
0.69531
0.70898
0.70898
0.71484
0.71484
0.71484
0.71484
0.71484
0.72461
0.71484
0.64063
0.48438
0.39063
0.45508
0.5957
0.67969
0.69922
0.70508
0.70898
0.71484
0.7207
0.7207
0.71484
0.70898
0.70898
0.69922
0.69531
0.69531
0.68945
0.68555
0.67578
0.66992
0.66016
0.65039
0.63477
0.625
0.60938
0.60547
0.60547
0.60938
0.625
0.63477
0.65039
0.66992
0.68945
0.69922
0.71484
0.7207
0.72461
0.73047
0.72461
0.72461
0.72461
0.72461
0.7207
0.7207
0.7207
0.7207
0.7207
0.7207
0.71484
0.71484
0.71484
0.71484
0.71484
0.71484
0.7207
0.7207
0.71484
0.71484
0.71484
0.71484
0.70898
0.70898
0.71484
0.71484
0.7207
0.70898
0.70508
0.69531
0.68945
0.68945
0.68945
0.68945
0.69531
0.69531
0.69922
0.70898
0.70898
0.71484
0.71484
0.71484
0.71484
0.7207
0.72461
0.70508
0.59961
0.44531
0.38477
0.47461
0.60938
0.68555
0.70898
0.71484
0.71484
0.7207
0.7207
0.71484
0.71484
0.71484
0.70898
0.70898
0.69922
0.69531
0.68945
0.67969
0.67578
0.66406
0.6543
0.64453
0.62891
0.61523
0.60938
0.60547
0.60547
0.61523
0.625
0.64063
0.66016
0.67969
0.69531
0.70898
0.71484
0.71484
0.71484
0.7207
0.7207
0.72461
0.72461
0.7207
0.7207
0.71484
0.7207
0.7207
0.7207
0.71484
0.71484
0.71484
0.71484
0.71484
0.71484
0.71484
0.71484
0.71484
0.71484
0.71484
0.7207
0.7207
0.72461
0.7207
0.7207
0.7207
0.7207
0.71484
0.71484
0.70898
0.69922
0.68945
0.68945
0.68945
0.68945
0.69531
0.69922
0.70898
0.71484
0.71484
0.71484
0.71484
0.71484
0.71484
0.72461
0.73438
0.67969
0.53906
0.4043
0.39063
0.53906
0.64063
0.67969
0.69531
0.69922
0.70898
0.71484
0.71484
0.70898
0.70898
0.69922
0.69922
0.69531
0.69531
0.69531
0.68555
0.67578
0.66992
0.66016
0.65039
0.64063
0.62891
0.61914
0.61523
0.60938
0.60938
0.61914
0.62891
0.65039
0.67578
0.69531
0.71484
0.72461
0.73438
0.74023
0.74023
0.74023
0.74023
0.74023
0.74023
0.74414
0.74414
0.74414
0.74414
0.74414
0.74023
0.74023
0.74023
0.74414
0.74414
0.74023
0.74023
0.73438
0.73438
0.73438
0.73438
0.73438
0.73438
0.73047
0.72461
0.72461
0.72461
0.7207
0.71484
0.70898
0.70898
0.69922
0.69531
0.69531
0.68945
0.68945
0.68945
0.69531
0.70898
0.71484
0.71484
0.71484
0.71484
0.71484
0.71484
0.72461
0.71484
0.64453
0.49414
0.39063
0.44531
0.58398
0.67969
0.70898
0.70898
0.70898
0.70898
0.71484
0.7207
0.7207
0.71484
0.70508
0.69531
0.68945
0.69531
0.69531
0.69531
0.68945
0.67969
0.66992
0.65039
0.63477
0.625
0.61523
0.60938
0.60938
0.61914
0.62891
0.64453
0.66016
0.67969
0.69531
0.70898
0.7207
0.72461
0.73047
0.73047
0.72461
0.7207
0.7207
0.7207
0.7207
0.71484
0.71484
0.70898
0.70898
0.70898
0.70898
0.70508
0.70898
0.70898
0.70898
0.71484
0.71484
0.71484
0.71484
0.71484
0.71484
0.7207
0.7207
0.7207
0.7207
0.7207
0.7207
0.70898
0.69922
0.69531
0.68555
0.67969
0.67578
0.67578
0.67578
0.67969
0.68945
0.69531
0.69922
0.69922
0.69922
0.70508
0.70898
0.70898
0.71484
0.68555
0.57422
0.42578
0.38086
0.5
0.625
0.68555
0.69922
0.69922
0.69922
0.70508
0.70898
0.70508
0.70508
0.69922
0.69922
0.69922
0.69531
0.68945
0.67969
0.67578
0.66992
0.66016
0.65039
0.63477
0.625
0.60938
0.60547
0.59961
0.59961
0.60547
0.61523
0.62891
0.6543
0.67578
0.69531
0.69922
0.70898
0.71484
0.7207
0.72461
0.7207
0.7207
0.7207
0.7207
0.7207
0.7207
0.7207
0.7207
0.7207
0.7207
0.7207
0.7207
0.7207
0.71484
0.71484
0.71484
0.71484
0.7207
0.7207
0.7207
0.7207
0.7207
0.7207
0.72461
0.72461
0.72461
0.7207
0.71484
0.71484
0.70898
0.69922
0.69922
0.69531
0.69922
0.69922
0.71484
0.73047
0.74023
0.74023
0.74023
0.74023
0.74023
0.74414
0.75391
0.75977
0.68555
0.53906
0.41992
0.46484
0.59961
0.69531
0.73047
0.74023
0.75
0.75391
0.75977
0.75977
0.75977
0.75391
0.75391
0.75
0.74414
0.74414
0.74414
0.74023
0.73438
0.72461
0.71484
0.69922
0.68945
0.67578
0.66992
0.66406
0.66016
0.66406
0.67578
0.68945
0.70508
0.72461
0.74414
0.75977
0.76953
0.77539
0.7793
0.78516
0.78516
0.78516
0.78516
0.78906
0.78906
0.78906
0.78906
0.78906
0.78906
0.78516
0.78516
0.78516
0.78516
0.78906
0.78906
0.78906
0.78906
0.78906
0.78906
0.78906
0.78906
0.78906
0.78906
0.78906
0.78906
0.78906
0.78516
0.78516
0.7793
0.7793
0.77539
0.76953
0.76563
0.76563
0.76563
0.76563
0.76953
0.7793
0.78516
0.78906
0.78906
0.78906
0.78906
0.78906
0.79883
0.80469
0.73047
0.58398
0.46484
0.50977
0.64063
0.72461
0.75977
0.76953
0.7793
0.78516
0.78516
0.78516
0.78516
0.78516
0.7793
0.77539
0.77539
0.76953
0.76563
0.75977
0.75391
0.74023
0.73047
0.7207
0.70898
0.69531
0.67969
0.67578
0.67578
0.67578
0.68555
0.69531
0.71484
0.73438
0.75391
0.75977
0.76953
0.77539
0.7793
0.7793
0.7793
0.77539
0.76953
0.76953
0.76953
0.76563
0.76563
0.76563
0.76563
0.75977
0.75977
0.75391
0.75391
0.75391
0.75391
0.75
0.75
0.75
0.75
0.74414
0.74414
0.74414
0.74414
0.74414
0.74414
0.74414
0.74023
0.73438
0.72461
0.7207
0.71484
0.70898
0.70898
0.70898
0.71484
0.7207
0.73438
0.74023
0.74023
0.73438
0.73438
0.73438
0.74023
0.74414
0.73438
0.6543
0.5
0.41016
0.47461
0.60938
0.69531
0.7207
0.72461
0.72461
0.73438
0.73047
0.72461
0.7207
0.7207
0.71484
0.70898
0.70898
0.70508
0.69922
0.68945
0.68555
0.67578
0.66992
0.6543
0.65039
0.63477
0.625
0.61914
0.61523
0.61914
0.62891
0.64063
0.66406
0.68555
0.70508
0.71484
0.7207
0.72461
0.73047
0.73047
0.73047
0.72461
0.72461
0.72461
0.72461
0.7207
0.7207
0.7207
0.7207
0.7207
0.71484
0.71484
0.71484
0.7207
0.71484
0.71484
0.71484
0.71484
0.7207
0.7207
0.7207
0.7207
0.7207
0.7207
0.7207
0.71484
0.70898
0.70898
0.69922
0.69531
0.68945
0.68945
0.68555
0.68555
0.68945
0.69922
0.70508
0.70898
0.70898
0.70898
0.70898
0.70898
0.71484
0.7207
0.69531
0.58398
0.42969
0.38086
0.48047
0.61523
0.67969
0.69531
0.69922
0.69922
0.70508
0.70898
0.70508
0.69922
0.69531
0.69531
0.68945
0.68945
0.68555
0.67969
0.66992
0.66016
0.6543
0.64063
0.625
0.61523
0.60547
0.5957
0.58984
0.58984
0.59961
0.60938
0.62891
0.65039
0.66992
0.68555
0.69531
0.69922
0.70898
0.71484
0.71484
0.70898
0.70898
0.70898
0.70898
0.70898
0.70898
0.70898
0.70898
0.70898
0.70898
0.69922
0.69922
0.69922
0.69922
0.69922
0.70508
0.70898
0.70898
0.70898
0.70898
0.70898
0.70508
0.70508
0.70508
0.70508
0.70508
0.69922
0.69531
0.68555
0.67578
0.66992
0.66992
0.66992
0.66992
0.67578
0.67969
0.68945
0.69531
0.69531
0.69531
0.68945
0.68945
0.69531
0.70898
0.69531
0.5957
0.43945
0.35938
0.44531
0.58008
0.65039
0.67578
0.68555
0.69531
0.69531
0.69531
0.69531
0.68945
0.68945
0.68945
0.68555
0.67578
0.67578
0.66992
0.66016
0.6543
0.64453
0.63477
0.625
0.61523
0.59961
0.58984
0.58398
0.58398
0.58398
0.5957
0.60938
0.62891
0.65039
0.66992
0.67969
0.68945
0.69531
0.69531
0.69531
0.69922
0.69922
0.69922
0.69922
0.69531
0.69531
0.68945
0.68945
0.68945
0.68945
0.68945
0.68945
0.68945
0.68945
0.68555
0.67969
0.67969
0.67969
0.68555
0.68555
0.68945
0.69531
0.69531
0.68945
0.68945
0.68945
0.68945
0.68555
0.67969
0.66992
0.66016
0.6543
0.6543
0.6543
0.6543
0.66406
0.67969
0.68945
0.69531
0.69531
0.69531
0.69531
0.68945
0.69922
0.69922
0.6543
0.51953
0.38477
0.36523
0.51563
0.61914
0.66406
0.67578
0.67969
0.68555
0.68945
0.68945
0.69531
0.68945
0.68555
0.67969
0.67578
0.66992
0.66406
0.66406
0.66016
0.65039
0.63477
0.61914
0.60547
0.58984
0.58398
0.58008
0.58008
0.58008
0.58398
0.59961
0.61914
0.64063
0.6543
0.66992
0.67969
0.68555
0.68945
0.69531
0.69922
0.69531
0.69531
0.69922
0.69531
0.69531
0.69531
0.69531
0.69531
0.68945
0.68945
0.68945
0.68945
0.68945
0.69531
0.69531
0.69531
0.68945
0.68945
0.68555
0.67969
0.67969
0.68555
0.68945
0.68945
0.68945
0.68945
0.67969
0.67578
0.66992
0.66016
0.66016
0.66016
0.66016
0.66406
0.67578
0.67969
0.67969
0.68555
0.68555
0.68555
0.68945
0.69531
0.69922
0.70508
0.625
0.47461
0.35938
0.41602
0.55078
0.65039
0.67969
0.68555
0.68945
0.68945
0.68945
0.68555
0.68555
0.67969
0.67969
0.67578
0.67578
0.66992
0.66016
0.6543
0.65039
0.64063
0.62891
0.625
0.60938
0.59961
0.58984
0.58398
0.58008
0.58008
0.58984
0.60547
0.62891
0.65039
0.66992
0.67969
0.68945
0.69531
0.69531
0.69531
0.69922
0.69922
0.70508
0.70508
0.69922
0.69922
0.69531
0.69531
0.69531
0.69531
0.69531
0.69531
0.69531
0.69531
0.69531
0.68945
0.68945
0.68945
0.68945
0.68945
0.68945
0.68945
0.68945
0.68945
0.68945
0.68945
0.68555
0.67969
0.67969
0.66992
0.66406
0.66016
0.66016
0.6543
0.66016
0.67578
0.68945
0.69531
0.69922
0.70508
0.70508
0.69922
0.69922
0.71484
0.70898
0.65039
0.50977
0.38086
0.375
0.53906
0.64453
0.67969
0.68945
0.69531
0.69922
0.70508
0.70508
0.69922
0.69922
0.69531
0.69531
0.68945
0.68945
0.67969
0.67969
0.67578
0.66406
0.6543
0.64063
0.625
0.60938
0.59961
0.5957
0.5957
0.5957
0.60547
0.61523
0.63477
0.6543
0.66992
0.68555
0.69531
0.70508
0.70898
0.70898
0.71484
0.71484
0.71484
0.70898
0.70898
0.71484
0.70898
0.70898
0.70898
0.69922
0.69922
0.69531
0.69922
0.69922
0.70508
0.70898
0.70898
0.70508
0.69922
0.69922
0.69922
0.69922
0.70508
0.70508
0.70898
0.70898
0.70898
0.69922
0.69922
0.69531
0.68945
0.67969
0.67969
0.67969
0.67969
0.67969
0.67969
0.68945
0.69531
0.70508
0.70898
0.70898
0.70508
0.70508
0.70898
0.7207
0.69922
0.5957
0.43945
0.38086
0.4707
0.5957
0.66406
0.68555
0.69531
0.69922
0.70508
0.70898
0.70898
0.70898
0.70508
0.70508
0.69922
0.69531
0.69531
0.68555
0.67969
0.66992
0.66016
0.65039
0.63477
0.625
0.60938
0.60547
0.5957
0.59961
0.60547
0.61523
0.62891
0.65039
0.66992
0.68555
0.69531
0.69922
0.70898
0.71484
0.71484
0.71484
0.70898
0.71484
0.71484
0.71484
0.71484
0.70898
0.71484
0.71484
0.71484
0.71484
0.71484
0.71484
0.71484
0.71484
0.71484
0.7207
0.7207
0.71484
0.70898
0.70898
0.70898
0.70898
0.70508
0.70508
0.70508
0.70508
0.69922
0.69922
0.68945
0.67969
0.67969
0.67578
0.67578
0.67969
0.68555
0.68945
0.69922
0.69922
0.70508
0.70508
0.70508
0.70508
0.70898
0.7207
0.69922
0.59961
0.43945
0.38086
0.47461
0.60547
0.67969
0.69922
0.69922
0.70508
0.70898
0.71484
0.71484
0.71484
0.70898
0.70898
0.70508
0.69922
0.69531
0.68945
0.67969
0.66992
0.66016
0.65039
0.64063
0.625
0.61523
0.60547
0.59961
0.59961
0.60547
0.61523
0.63477
0.66016
0.67578
0.69531
0.69922
0.70898
0.71484
0.71484
0.71484
0.7207
0.7207
0.7207
0.7207
0.7207
0.71484
0.70898
0.70898
0.70898
0.70898
0.70898
0.70898
0.70898
0.70508
0.69922
0.69922
0.70508
0.70508
0.70508
0.70898
0.70898
0.70898
0.70898
0.71484
0.71484
0.70898
0.70898
0.70508
0.69922
0.69531
0.68555
0.67969
0.67969
0.67969
0.67969
0.68555
0.69531
0.70508
0.70898
0.71484
0.71484
0.70898
0.70898
0.7207
0.72461
0.67969
0.54492
0.4043
0.38477
0.53516
0.64453
0.68945
0.69922
0.69922
0.70898
0.71484
0.70898
0.70898
0.70508
0.69922
0.69922
0.69531
0.69531
0.68945
0.68555
0.67578
0.66992
0.66016
0.65039
0.63477
0.625
0.61523
0.60938
0.60547
0.60938
0.60938
0.625
0.64453
0.66406
0.68555
0.69922
0.70898
0.7207
0.7207
0.7207
0.7207
0.7207
0.7207
0.7207
0.7207
0.7207
0.7207
0.7207
0.7207
0.7207
0.71484
0.71484
0.71484
0.71484
0.71484
0.71484
0.71484
0.70898
0.70898
0.70898
0.70898
0.70898
0.71484
0.71484
0.71484
0.71484
0.70898
0.70508
0.69922
0.69922
0.69531
0.68945
0.68555
0.68555
0.68945
0.68945
0.69531
0.69922
0.70898
0.71484
0.7207
0.7207
0.71484
0.7207
0.72461
0.73047
0.68555
0.55469
0.41602
0.39063
0.53516
0.65039
0.69531
0.70898
0.70898
0.70898
0.71484
0.71484
0.71484
0.70898
0.70508
0.69922
0.69531
0.68945
0.68555
0.67969
0.67578
0.66992
0.66016
0.64453
0.63477
0.625
0.60938
0.60547
0.60547
0.60547
0.61523
0.62891
0.64453
0.66406
0.67969
0.68945
0.69922
0.70508
0.71484
0.7207
0.7207
0.7207
0.71484
0.71484
0.71484
0.71484
0.71484
0.71484
0.71484
0.71484
0.71484
0.70898
0.70898
0.70898
0.70898
0.70898
0.70898
0.71484
0.71484
0.71484
0.70898
0.70898
0.70898
0.70898
0.70898
0.71484
0.71484
0.70898
0.70508
0.69922
0.69531
0.68555
0.67969
0.67969
0.68555
0.68945
0.68945
0.69531
0.69922
0.70508
0.70898
0.70898
0.70898
0.70898
0.7207
0.72461
0.70508
0.59961
0.44531
0.38477
0.4707
0.5957
0.66016
0.68555
0.69531
0.69922
0.70508
0.70508
0.70508
0.70508
0.69922
0.69922
0.69922
0.69922
0.69531
0.68945
0.67969
0.67578
0.66406
0.6543
0.64453
0.62891
0.61914
0.60938
0.60547
0.60547
0.60547
0.61914
0.63477
0.6543
0.67578
0.68945
0.69922
0.70898
0.71484
0.7207
0.7207
0.7207
0.7207
0.7207
0.7207
0.7207
0.71484
0.71484
0.71484
0.71484
0.7207
0.7207
0.7207
0.71484
0.71484
0.70898
0.70898
0.71484
0.71484
0.71484
0.71484
0.7207
0.7207
0.7207
0.7207
0.71484
0.71484
0.71484
0.70898
0.70898
0.69922
0.69531
0.68945
0.68945
0.69531
0.69531
0.69922
0.70898
0.7207
0.7207
0.7207
0.7207
0.7207
0.7207
0.72461
0.73047
0.68555
0.54492
0.4043
0.39063
0.54492
0.6543
0.69922
0.70898
0.70898
0.71484
0.72461
0.72461
0.7207
0.71484
0.70898
0.69922
0.69922
0.69531
0.69531
0.68945
0.67969
0.66992
0.66016
0.65039
0.63477
0.625
0.61523
0.60938
0.60547
0.60547
0.61523
0.62891
0.65039
0.66992
0.68555
0.70508
0.71484
0.7207
0.72461
0.72461
0.72461
0.72461
0.72461
0.72461
0.72461
0.72461
0.72461
0.7207
0.7207
0.71484
0.7207
0.7207
0.7207
0.7207
0.7207
0.7207
0.7207
0.7207
0.7207
0.71484
0.71484
0.7207
0.7207
0.7207
0.7207
0.71484
0.70898
0.70508
0.69922
0.69531
0.68945
0.68555
0.68945
0.68945
0.68945
0.69531
0.69922
0.70898
0.71484
0.71484
0.71484
0.71484
0.7207
0.7207
0.72461
0.69922
0.58984
0.42969
0.39063
0.5
0.62891
0.68945
0.70508
0.70898
0.71484
0.71484
0.71484
0.71484
0.71484
0.70898
0.70898
0.69922
0.69922
0.69531
0.68945
0.68555
0.67578
0.66406
0.6543
0.64453
0.62891
0.61523
0.60547
0.59961
0.59961
0.60938
0.625
0.64453
0.66406
0.67969
0.69531
0.70898
0.71484
0.7207
0.7207
0.72461
0.72461
0.72461
0.72461
0.7207
0.71484
0.71484
0.7207
0.7207
0.7207
0.7207
0.7207
0.71484
0.71484
0.71484
0.71484
0.7207
0.7207
0.7207
0.7207
0.7207
0.71484
0.71484
0.71484
0.71484
0.71484
0.71484
0.70898
0.70898
0.69922
0.69531
0.67969
0.67969
0.68555
0.68945
0.69531
0.69531
0.69922
0.70898
0.71484
0.70898
0.70898
0.70898
0.70898
0.71484
0.73047
0.7207
0.63477
0.47461
0.38477
0.45508
0.58398
0.66016
0.68945
0.69922
0.70898
0.71484
0.71484
0.71484
0.70898
0.70898
0.70508
0.69922
0.69922
0.69531
0.68945
0.67969
0.67578
0.66016
0.6543
0.65039
0.63477
0.625
0.61523
0.60938
0.60547
0.60547
0.61914
0.63477
0.6543
0.67578
0.69531
0.70898
0.71484
0.7207
0.7207
0.72461
0.72461
0.72461
0.72461
0.72461
0.72461
0.7207
0.7207
0.71484
0.71484
0.71484
0.71484
0.71484
0.71484
0.71484
0.71484
0.71484
0.70898
0.70898
0.71484
0.71484
0.7207
0.71484
0.71484
0.71484
0.71484
0.71484
0.71484
0.70898
0.70898
0.69922
0.69531
0.68945
0.68945
0.69531
0.69531
0.69531
0.69922
0.70898
0.71484
0.71484
0.71484
0.71484
0.71484
0.70898
0.7207
0.72461
0.64453
0.49414
0.38477
0.43945
0.57031
0.66016
0.68945
0.69531
0.69922
0.70898
0.70898
0.71484
0.70898
0.70508
0.69922
0.69922
0.69531
0.69531
0.68945
0.68945
0.67969
0.66992
0.6543
0.64453
0.62891
0.61914
0.60938
0.60547
0.60547
0.60547
0.61523
0.62891
0.65039
0.66406
0.68555
0.69922
0.70898
0.71484
0.7207
0.7207
0.7207
0.7207
0.71484
0.7207
0.7207
0.7207
0.7207
0.71484
0.70898
0.70898
0.71484
0.71484
0.71484
0.71484
0.71484
0.71484
0.71484
0.7207
0.71484
0.71484
0.71484
0.71484
0.71484
0.71484
0.71484
0.71484
0.71484
0.70898
0.69922
0.69531
0.68945
0.68555
0.68945
0.69531
0.69531
0.69531
0.69922
0.70898
0.70898
0.70898
0.71484
0.7207
0.7207
0.7207
0.72461
0.71484
0.62891
0.47461
0.39063
0.4707
0.60547
0.68555
0.70898
0.70898
0.71484
0.71484
0.71484
0.71484
0.70898
0.70898
0.70898
0.69922
0.69531
0.68945
0.68945
0.67969
0.67578
0.66992
0.66016
0.64453
0.63477
0.625
0.61523
0.60938
0.60938
0.60938
0.625
0.64063
0.66016
0.67578
0.69531
0.70898
0.71484
0.7207
0.72461
0.73047
0.73047
0.73047
0.73047
0.72461
0.7207
0.7207
0.7207
0.7207
0.7207
0.7207
0.7207
0.7207
0.7207
0.7207
0.7207
0.7207
0.7207
0.7207
0.7207
0.7207
0.7207
0.7207
0.7207
0.71484
0.71484
0.7207
0.7207
0.71484
0.70898
0.69922
0.69531
0.68945
0.68945
0.69531
0.69531
0.69531
0.69922
0.70898
0.71484
0.71484
0.71484
0.71484
0.7207
0.7207
0.72461
0.70898
0.60938
0.44922
0.375
0.46484
0.60547
0.67969
0.69922
0.70508
0.70898
0.71484
0.71484
0.71484
0.71484
0.71484
0.70898
0.70898
0.70508
0.69922
0.68945
0.68555
0.67578
0.66992
0.6543
0.64453
0.63477
0.625
0.61523
0.60938
0.60938
0.60938
0.61914
0.64063
0.6543
0.67578
0.69531
0.70898
0.71484
0.7207
0.7207
0.72461
0.7207
0.7207
0.72461
0.72461
0.72461
0.72461
0.7207
0.7207
0.71484
0.71484
0.71484
0.71484
0.7207
0.7207
0.71484
0.70898
0.70898
0.70898
0.70898
0.70898
0.71484
0.71484
0.71484
0.71484
0.71484
0.71484
0.70898
0.70508
0.70508
0.69922
0.69531
0.68945
0.68945
0.68945
0.69531
0.68945
0.69531
0.70898
0.71484
0.71484
0.71484
0.71484
0.71484
0.71484
0.72461
0.72461
0.66992
0.5293
0.39453
0.38477
0.53516
0.63477
0.67578
0.69531
0.69922
0.70898
0.71484
0.71484
0.70898
0.70898
0.69922
0.69922
0.69922
0.69531
0.68945
0.68555
0.67969
0.66992
0.66016
0.65039
0.63477
0.625
0.61523
0.60938
0.60547
0.60547
0.60938
0.625
0.64063
0.66016
0.67969
0.69531
0.71484
0.7207
0.72461
0.72461
0.72461
0.72461
0.72461
0.72461
0.72461
0.72461
0.72461
0.72461
0.7207
0.7207
0.71484
0.70898
0.70898
0.71484
0.71484
0.71484
0.71484
0.71484
0.71484
0.70898
0.70898
0.71484
0.70898
0.71484
0.71484
0.71484
0.71484
0.70898
0.69922
0.69922
0.69531
0.68945
0.68555
0.68945
0.69531
0.68945
0.69531
0.69922
0.70508
0.70508
0.70898
0.70898
0.71484
0.71484
0.7207
0.7207
0.67578
0.54492
0.4043
0.38477
0.53516
0.65039
0.69531
0.69922
0.69922
0.69922
0.70508
0.70898
0.70898
0.70898
0.70898
0.70508
0.69922
0.69531
0.68555
0.67578
0.66992
0.66016
0.65039
0.64063
0.62891
0.61914
0.60938
0.59961
0.59961
0.59961
0.60547
0.61914
0.64063
0.66016
0.67578
0.69531
0.69922
0.70898
0.71484
0.7207
0.7207
0.7207
0.7207
0.71484
0.71484
0.71484
0.71484
0.71484
0.71484
0.71484
0.71484
0.70898
0.70898
0.70898
0.70898
0.70898
0.70898
0.70898
0.71484
0.71484
0.71484
0.71484
0.70898
0.70508
0.70508
0.70898
0.70898
0.71484
0.70898
0.69922
0.68945
0.67969
0.67578
0.67969
0.68945
0.68945
0.68945
0.69922
0.70508
0.70898
0.70508
0.70898
0.70898
0.71484
0.7207
0.73047
0.69531
0.57422
0.42578
0.38477
0.50977
0.63477
0.69922
0.71484
0.71484
0.71484
0.71484
0.71484
0.71484
0.70898
0.70508
0.69922
0.69922
0.69531
0.68945
0.67969
0.67578
0.66992
0.6543
0.64453
0.62891
0.61914
0.60938
0.60547
0.60547
0.60547
0.60938
0.625
0.64453
0.66406
0.68555
0.69922
0.70898
0.7207
0.7207
0.7207
0.7207
0.7207
0.7207
0.7207
0.7207
0.7207
0.71484
0.71484
0.70898
0.70898
0.70898
0.70898
0.71484
0.70898
0.70898
0.70898
0.70898
0.70898
0.70898
0.70508
0.70508
0.70898
0.71484
0.71484
0.70898
0.70898
0.70898
0.70508
0.69922
0.69922
0.69531
0.68945
0.68945
0.69531
0.69531
0.69531
0.69531
0.70508
0.70898
0.71484
0.71484
0.71484
0.71484
0.70898
0.7207
0.72461
0.67969
0.53906
0.39453
0.375
0.5293
0.64063
0.68555
0.69531
0.69922
0.70508
0.70898
0.70898
0.70508
0.69922
0.69531
0.69531
0.68945
0.68945
0.68555
0.67969
0.67578
0.66406
0.6543
0.64453
0.62891
0.61523
0.60938
0.60547
0.60547
0.60547
0.61523
0.62891
0.64453
0.66406
0.68555
0.69922
0.70898
0.71484
0.7207
0.7207
0.7207
0.7207
0.7207
0.71484
0.71484
0.71484
0.71484
0.71484
0.70898
0.70898
0.71484
0.71484
0.71484
0.71484
0.71484
0.71484
0.71484
0.71484
0.71484
0.7207
0.71484
0.71484
0.71484
0.71484
0.71484
0.71484
0.70898
0.70508
0.69922
0.69531
0.68945
0.67969
0.67969
0.68945
0.68945
0.68945
0.69531
0.69922
0.70898
0.70898
0.70898
0.70898
0.71484
0.7207
0.73047
0.73438
0.63477
0.48047
0.39063
0.46094
0.5957
0.66992
0.69922
0.70508
0.71484
0.71484
0.71484
0.7207
0.7207
0.71484
0.71484
0.70898
0.70898
0.69922
0.69531
0.68555
0.67969
0.66992
0.66016
0.65039
0.64063
0.62891
0.61523
0.60938
0.60938
0.61523
0.62891
0.64453
0.66406
0.68555
0.70508
0.71484
0.7207
0.72461
0.73047
0.73438
0.73438
0.73438
0.73438
0.73047
0.72461
0.72461
0.72461
0.7207
0.7207
0.7207
0.7207
0.72461
0.7207
0.71484
0.71484
0.71484
0.7207
0.7207
0.7207
0.7207
0.7207
0.7207
0.7207
0.7207
0.7207
0.71484
0.71484
0.71484
0.70898
0.69922
0.68945
0.68555
0.68945
0.69531
0.69531
0.69922
0.70898
0.71484
0.71484
0.71484
0.71484
0.71484
0.70898
0.7207
0.72461
0.67969
0.53906
0.40039
0.39063
0.55078
0.66016
0.69531
0.70508
0.70898
0.70898
0.71484
0.71484
0.70898
0.70898
0.70508
0.69922
0.69922
0.69922
0.69531
0.68555
0.67578
0.66992
0.6543
0.64453
0.62891
0.61914
0.60938
0.60547
0.60547
0.60547
0.60938
0.625
0.64453
0.66406
0.68555
0.69922
0.71484
0.7207
0.72461
0.72461
0.7207
0.7207
0.7207
0.7207
0.72461
0.7207
0.7207
0.71484
0.71484
0.71484
0.71484
0.71484
0.71484
0.71484
0.7207
0.71484
0.71484
0.71484
0.71484
0.71484
0.7207
0.7207
0.7207
0.7207
0.7207
0.71484
0.71484
0.70898
0.69922
0.69531
0.68945
0.68555
0.68945
0.68945
0.68945
0.68945
0.69531
0.69922
0.70898
0.70898
0.70898
0.70898
0.70898
0.71484
0.72461
0.69531
0.58008
0.42578
0.38477
0.50586
0.63477
0.69531
0.70508
0.70508
0.70898
0.71484
0.71484
0.71484
0.71484
0.70898
0.70898
0.70508
0.69922
0.68945
0.68555
0.67969
0.66992
0.66016
0.64453
0.62891
0.61914
0.60938
0.60547
0.5957
0.59961
0.60938
0.61914
0.64063
0.66016
0.67969
0.69531
0.70898
0.71484
0.7207
0.72461
0.72461
0.72461
0.72461
0.72461
0.7207
0.7207
0.71484
0.71484
0.7207
0.7207
0.71484
0.71484
0.70898
0.70508
0.70508
0.70898
0.70898
0.71484
0.71484
0.71484
0.71484
0.70898
0.70898
0.70898
0.70898
0.70898
0.70898
0.70898
0.69922
0.68945
0.67578
0.67578
0.67969
0.68945
0.68945
0.69531
0.69922
0.70898
0.70898
0.70898
0.70508
0.70508
0.70898
0.71484
0.72461
0.68945
0.57422
0.42969
0.39063
0.49414
0.60938
0.66992
0.68945
0.69922
0.70898
0.70898
0.70898
0.70898
0.70898
0.70508
0.70508
0.69922
0.69531
0.69531
0.67969
0.66992
0.66016
0.6543
0.64453
0.63477
0.625
0.61523
0.60938
0.60547
0.59961
0.60547
0.61914
0.64063
0.66016
0.67969
0.69531
0.70508
0.70898
0.71484
0.71484
0.71484
0.71484
0.71484
0.71484
0.71484
0.71484
0.70898
0.70508
0.70508
0.70508
0.70898
0.70508
0.70508
0.70898
0.71484
0.70898
0.70898
0.70898
0.71484
0.71484
0.71484
0.7207
0.7207
0.71484
0.71484
0.71484
0.71484
0.71484
0.70898
0.69922
0.69531
0.68945
0.68945
0.69531
0.69531
0.69531
0.69922
0.70898
0.71484
0.70898
0.70898
0.70898
0.70898
0.70898
0.7207
0.70898
0.625
0.46484
0.375
0.44922
0.58398
0.66406
0.68945
0.69922
0.69922
0.70898
0.71484
0.71484
0.70898
0.70508
0.69922
0.69922
0.69531
0.68945
0.68555
0.67969
0.67578
0.66406
0.6543
0.64063
0.625
0.61523
0.60547
0.5957
0.5957
0.59961
0.60938
0.62891
0.65039
0.66992
0.68555
0.69922
0.70898
0.71484
0.7207
0.71484
0.70898
0.70898
0.70898
0.70898
0.70898
0.70898
0.70898
0.70898
0.70898
0.70898
0.70898
0.70508
0.70898
0.71484
0.71484
0.71484
0.71484
0.71484
0.71484
0.71484
0.71484
0.71484
0.7207
0.72461
0.72461
0.7207
0.71484
0.70898
0.69922
0.69531
0.68555
0.68555
0.68945
0.69531
0.69531
0.69922
0.71484
0.71484
0.7207
0.71484
0.71484
0.71484
0.7207
0.72461
0.7207
0.66016
0.50586
0.38477
0.42969
0.57031
0.66992
0.69922
0.70898
0.70898
0.70898
0.70898
0.70898
0.71484
0.70898
0.70898
0.70898
0.70898
0.69922
0.69531
0.68945
0.67969
0.67578
0.66992
0.66016
0.64453
0.62891
0.61523
0.60938
0.60547
0.60547
0.61523
0.62891
0.6543
0.67578
0.68945
0.69922
0.70898
0.71484
0.71484
0.7207
0.7207
0.7207
0.7207
0.71484
0.71484
0.71484
0.71484
0.71484
0.70898
0.70898
0.70898
0.70898
0.70898
0.70898
0.70898
0.70898
0.70898
0.70898
0.70898
0.70898
0.70898
0.70898
0.70898
0.70898
0.71484
0.71484
0.70898
0.70508
0.69922
0.68945
0.67969
0.67969
0.67969
0.67969
0.68555
0.68945
0.69922
0.70508
0.70898
0.70898
0.70898
0.70898
0.70898
0.7207
0.72461
0.68555
0.57031
0.41602
0.38086
0.50586
0.625
0.68555
0.69531
0.70508
0.70898
0.71484
0.7207
0.71484
0.71484
0.70898
0.70508
0.70508
0.70898
0.70508
0.69531
0.68945
0.67969
0.66992
0.66016
0.64453
0.63477
0.625
0.61523
0.60938
0.60938
0.61523
0.625
0.64453
0.66406
0.68555
0.69922
0.70898
0.71484
0.71484
0.71484
0.7207
0.7207
0.7207
0.7207
0.72461
0.7207
0.7207
0.7207
0.7207
0.7207
0.71484
0.71484
0.71484
0.71484
0.71484
0.71484
0.7207
0.71484
0.71484
0.71484
0.71484
0.71484
0.71484
0.7207
0.7207
0.71484
0.70898
0.70898
0.70508
0.69922
0.68945
0.68555
0.68945
0.68945
0.68945
0.68945
0.69531
0.69922
0.69922
0.70508
0.70898
0.71484
0.70898
0.71484
0.7207
0.70508
0.62891
0.47461
0.38477
0.44531
0.57422
0.65039
0.67969
0.69531
0.70898
0.71484
0.7207
0.7207
0.7207
0.72461
0.7207
0.70898
0.70508
0.69531
0.68945
0.67969
0.67578
0.66406
0.6543
0.64453
0.62891
0.61523
0.60547
0.60547
0.60547
0.60938
0.61914
0.64063
0.66406
0.67969
0.69531
0.70898
0.7207
0.72461
0.72461
0.72461
0.72461
0.7207
0.7207
0.7207
0.72461
0.72461
0.7207
0.7207
0.7207
0.72461
0.7207
0.7207
0.7207
0.7207
0.7207
0.7207
0.7207
0.7207
0.7207
0.7207
0.71484
0.71484
0.71484
0.71484
0.71484
0.71484
0.71484
0.71484
0.70898
0.69922
0.68945
0.68945
0.69531
0.69531
0.69531
0.69531
0.69922
0.70898
0.70898
0.70898
0.71484
0.71484
0.71484
0.72461
0.73047
0.68555
0.56055
0.41016
0.38086
0.51953
0.63477
0.68945
0.69922
0.70508
0.70898
0.71484
0.70898
0.70898
0.69922
0.69922
0.70508
0.69922
0.69922
0.69531
0.68555
0.67578
0.66406
0.6543
0.64453
0.62891
0.61914
0.60938
0.59961
0.5957
0.5957
0.60547
0.61914
0.64063
0.66406
0.68945
0.70508
0.71484
0.7207
0.72461
0.72461
0.73047
0.73438
0.73438
0.73438
0.73438
0.73438
0.73438
0.73438
0.72461
0.72461
0.72461
0.73047
0.73047
0.73438
0.73438
0.73438
0.73047
0.72461
0.72461
0.72461
0.72461
0.72461
0.72461
0.7207
0.71484
0.70898
0.70898
0.70508
0.69922
0.69922
0.68945
0.68945
0.68945
0.68945
0.68945
0.68945
0.69922
0.70898
0.70898
0.70898
0.71484
0.70898
0.70508
0.70898
0.71484
0.68555
0.57031
0.41992
0.375
0.49414
0.61914
0.68555
0.69922
0.70508
0.70898
0.70898
0.71484
0.71484
0.71484
0.70898
0.69922
0.69531
0.68945
0.68945
0.67969
0.67578
0.66992
0.6543
0.65039
0.63477
0.625
0.61523
0.60938
0.60547
0.60547
0.61523
0.62891
0.65039
0.66992
0.68945
0.70508
0.71484
0.7207
0.73047
0.73438
0.73438
0.73047
0.73047
0.73047
0.73047
0.72461
0.72461
0.72461
0.72461
0.72461
0.7207
0.7207
0.71484
0.71484
0.7207
0.7207
0.72461
0.7207
0.7207
0.71484
0.71484
0.71484
0.7207
0.7207
0.7207
0.7207
0.7207
0.7207
0.71484
0.70898
0.69922
0.69531
0.69531
0.69922
0.69922
0.69922
0.70508
0.70898
0.71484
0.71484
0.71484
0.7207
0.7207
0.72461
0.73438
0.7207
0.62891
0.46484
0.39063
0.4707
0.59961
0.67578
0.70508
0.71484
0.7207
0.72461
0.72461
0.72461
0.72461
0.72461
0.72461
0.7207
0.71484
0.70898
0.70898
0.69922
0.68945
0.67969
0.66992
0.6543
0.64453
0.64063
0.62891
0.61914
0.61523
0.61914
0.63477
0.64453
0.66992
0.68945
0.70898
0.7207
0.72461
0.73047
0.73438
0.73047
0.73047
0.73438
0.73438
0.73047
0.72461
0.72461
0.7207
0.7207
0.7207
0.7207
0.7207
0.7207
0.72461
0.72461
0.7207
0.7207
0.7207
0.7207
0.72461
0.73047
0.73438
0.73047
0.73047
0.73047
0.73047
0.73047
0.72461
0.72461
0.7207
0.70898
0.70508
0.69922
0.69922
0.69922
0.69922
0.69922
0.70898
0.71484
0.7207
0.7207
0.7207
0.71484
0.71484
0.7207
0.72461
0.66406
0.52539
0.40039
0.39063
0.55078
0.65039
0.68945
0.69922
0.70898
0.71484
0.7207
0.7207
0.72461
0.7207
0.71484
0.70898
0.70898
0.69922
0.69531
0.68945
0.68555
0.67578
0.66016
0.65039
0.63477
0.625
0.61523
0.60938
0.60547
0.60547
0.61523
0.625
0.64453
0.66992
0.68555
0.69922
0.70898
0.71484
0.7207
0.72461
0.72461
0.7207
0.7207
0.7207
0.7207
0.7207
0.7207
0.7207
0.71484
0.71484
0.71484
0.70898
0.70898
0.70898
0.70898
0.71484
0.70898
0.70898
0.71484
0.71484
0.71484
0.71484
0.7207
0.7207
0.71484
0.71484
0.71484
0.70898
0.70508
0.69922
0.69531
0.69531
0.69922
0.69922
0.69922
0.69922
0.70508
0.70898
0.71484
0.71484
0.71484
0.71484
0.71484
0.72461
0.73047
0.68945
0.56445
0.41602
0.39063
0.53906
0.6543
0.70508
0.71484
0.71484
0.71484
0.71484
0.71484
0.71484
0.71484
0.71484
0.71484
0.70898
0.69922
0.69531
0.68555
0.67578
0.66992
0.66016
0.65039
0.64063
0.625
0.61523
0.60547
0.60547
0.60547
0.60938
0.62891
0.65039
0.66992
0.68945
0.70508
0.71484
0.7207
0.7207
0.72461
0.72461
0.73047
0.73047
0.72461
0.72461
0.72461
0.72461
0.7207
0.7207
0.7207
0.7207
0.72461
0.72461
0.7207
0.71484
0.71484
0.7207
0.7207
0.7207
0.7207
0.72461
0.7207
0.7207
0.72461
0.72461
0.72461
0.7207
0.7207
0.71484
0.70898
0.69531
0.68945
0.68945
0.69531
0.69531
0.69922
0.70898
0.71484
0.7207
0.7207
0.71484
0.71484
0.7207
0.7207
0.73047
0.73438
0.6543
0.50977
0.39453
0.39063
0.57422
0.66992
0.70508
0.70898
0.71484
0.7207
0.7207
0.7207
0.71484
0.71484
0.70898
0.70898
0.70508
0.69922
0.69531
0.68945
0.67969
0.66992
0.6543
0.64453
0.63477
0.62891
0.61914
0.61523
0.61523
0.61523
0.625
0.64063
0.66016
0.67969
0.69922
0.71484
0.72461
0.73438
0.73438
0.73047
0.73047
0.73047
0.73047
0.73047
0.72461
0.72461
0.72461
0.72461
0.7207
0.71484
0.71484
0.71484
0.7207
0.7207
0.7207
0.7207
0.7207
0.71484
0.71484
0.7207
0.7207
0.7207
0.72461
0.72461
0.7207
0.71484
0.71484
0.71484
0.70898
0.70898
0.69922
0.69531
0.69531
0.69922
0.69531
0.69531
0.69922
0.70898
0.71484
0.7207
0.7207
0.7207
0.71484
0.71484
0.72461
0.73047
0.68945
0.56445
0.41992
0.39063
0.51953
0.625
0.67578
0.69531
0.69922
0.70898
0.7207
0.7207
0.72461
0.7207
0.71484
0.70898
0.70898
0.70508
0.69922
0.69922
0.69531
0.68945
0.67578
0.66406
0.6543
0.64063
0.625
0.61914
0.61523
0.61523
0.625
0.63477
0.65039
0.66992
0.68945
0.70508
0.71484
0.7207
0.72461
0.72461
0.72461
0.72461
0.72461
0.72461
0.7207
0.7207
0.7207
0.7207
0.7207
0.72461
0.7207
0.71484
0.71484
0.71484
0.7207
0.7207
0.72461
0.72461
0.72461
0.7207
0.7207
0.72461
0.7207
0.7207
0.72461
0.72461
0.72461
0.73047
0.7207
0.71484
0.69922
0.69531
0.68945
0.69531
0.69922
0.69922
0.70508
0.70898
0.71484
0.71484
0.7207
0.7207
0.7207
0.7207
0.7207
0.73438
0.7207
0.63477
0.48047
0.38477
0.46094
0.59961
0.67969
0.69922
0.70898
0.70898
0.71484
0.71484
0.71484
0.71484
0.71484
0.70898
0.70898
0.70508
0.69922
0.69531
0.68945
0.67969
0.66992
0.66016
0.6543
0.64453
0.625
0.61523
0.60938
0.60938
0.61523
0.62891
0.64453
0.66992
0.68945
0.70508
0.7207
0.72461
0.73047
0.73438
0.74023
0.74023
0.74023
0.74023
0.74023
0.73438
0.73438
0.73438
0.73438
0.73438
0.73438
0.73438
0.73438
0.73047
0.72461
0.72461
0.73047
0.72461
0.72461
0.73047
0.73047
0.73047
0.72461
0.73047
0.73047
0.73047
0.73047
0.73047
0.72461
0.7207
0.71484
0.70508
0.69531
0.69531
0.69531
0.69922
0.70508
0.70898
0.71484
0.7207
0.72461
0.7207
0.7207
0.7207
0.72461
0.73438
0.74023
0.68945
0.55078
0.4043
0.39063
0.55078
0.66016
0.70508
0.71484
0.71484
0.71484
0.7207
0.7207
0.7207
0.71484
0.71484
0.71484
0.70898
0.70898
0.69922
0.69531
0.68555
0.67578
0.66406
0.6543
0.64453
0.62891
0.625
0.61523
0.60938
0.60938
0.61523
0.63477
0.6543
0.67578
0.69531
0.70898
0.71484
0.7207
0.72461
0.72461
0.72461
0.72461
0.7207
0.7207
0.7207
0.7207
0.7207
0.7207
0.71484
0.71484
0.71484
0.7207
0.7207
0.7207
0.7207
0.7207
0.7207
0.71484
0.71484
0.7207
0.7207
0.7207
0.7207
0.7207
0.7207
0.71484
0.71484
0.71484
0.70898
0.70898
0.69922
0.69531
0.68945
0.68945
0.69531
0.69531
0.69922
0.70898
0.71484
0.7207
0.7207
0.7207
0.7207
0.7207
0.7207
0.73047
0.71484
0.61914
0.46484
0.39063
0.47461
0.60547
0.67969
0.70508
0.70898
0.71484
0.7207
0.7207
0.7207
0.71484
0.70898
0.70898
0.70508
0.69922
0.69922
0.69531
0.68945
0.67969
0.66406
0.65039
0.64063
0.62891
0.61523
0.60938
0.60938
0.60938
0.60938
0.61914
0.63477
0.6543
0.67578
0.68945
0.70898
0.71484
0.7207
0.7207
0.7207
0.71484
0.71484
0.71484
0.7207
0.7207
0.7207
0.71484
0.71484
0.71484
0.71484
0.71484
0.71484
0.71484
0.71484
0.71484
0.71484
0.71484
0.70898
0.70898
0.70898
0.71484
0.71484
0.71484
0.71484
0.71484
0.70898
0.70898
0.70508
0.69922
0.69531
0.68945
0.67969
0.67969
0.68945
0.69531
0.69531
0.69531
0.69922
0.70898
0.71484
0.70898
0.70898
0.70898
0.70898
0.7207
0.72461
0.66016
0.51563
0.39453
0.38477
0.54492
0.64063
0.67578
0.68945
0.69922
0.70508
0.70898
0.70898
0.70898
0.70898
0.70508
0.69922
0.69531
0.69531
0.68555
0.67969
0.67578
0.66992
0.6543
0.64453
0.63477
0.61914
0.60547
0.59961
0.59961
0.60547
0.60938
0.625
0.64453
0.66992
0.68555
0.69922
0.70898
0.71484
0.7207
0.7207
0.71484
0.71484
0.71484
0.70898
0.70898
0.70898
0.70898
0.70898
0.70508
0.70508
0.70508
0.70508
0.70508
0.70508
0.70898
0.70898
0.70898
0.70898
0.70898
0.70508
0.70508
0.69922
0.69922
0.70508
0.70898
0.70508
0.70508
0.70508
0.69922
0.69531
0.68945
0.67969
0.67969
0.68945
0.68945
0.68945
0.69531
0.70508
0.70898
0.70898
0.70898
0.71484
0.71484
0.7207
0.72461
0.73047
0.68945
0.56055
0.41602
0.38477
0.5293
0.64453
0.69531
0.70898
0.70898
0.70898
0.71484
0.71484
0.70898
0.70898
0.70898
0.70508
0.69922
0.69531
0.68945
0.67969
0.67578
0.66992
0.66016
0.65039
0.63477
0.625
0.60938
0.59961
0.5957
0.5957
0.60547
0.625
0.64453
0.66992
0.68555
0.69922
0.70898
0.71484
0.7207
0.72461
0.73047
0.73047
0.73047
0.72461
0.72461
0.72461
0.7207
0.72461
0.72461
0.7207
0.7207
0.7207
0.71484
0.71484
0.71484
0.71484
0.71484
0.71484
0.71484
0.71484
0.7207
0.7207
0.7207
0.71484
0.71484
0.71484
0.71484
0.71484
0.71484
0.70508
0.69531
0.68945
0.68945
0.69531
0.69922
0.69922
0.70898
0.71484
0.7207
0.72461
0.72461
0.7207
0.7207
0.7207
0.73047
0.73438
0.66992
0.52539
0.40039
0.39453
0.57031
0.66992
0.70508
0.70898
0.71484
0.7207
0.7207
0.7207
0.7207
0.71484
0.70898
0.70508
0.69922
0.69922
0.69531
0.68945
0.67969
0.67578
0.66016
0.65039
0.63477
0.625
0.61523
0.60938
0.60938
0.60938
0.61914
0.62891
0.65039
0.67578
0.68945
0.70508
0.71484
0.7207
0.72461
0.73047
0.72461
0.7207
0.7207
0.72461
0.72461
0.72461
0.7207
0.7207
0.71484
0.71484
0.71484
0.71484
0.71484
0.7207
0.7207
0.71484
0.71484
0.71484
0.71484
0.71484
0.71484
0.71484
0.7207
0.71484
0.71484
0.71484
0.70898
0.70898
0.69922
0.69922
0.69531
0.68945
0.68945
0.69531
0.69531
0.69531
0.69922
0.70508
0.70898
0.70898
0.71484
0.71484
0.71484
0.71484
0.72461
0.7207
0.64453
0.49414
0.39063
0.44922
0.58008
0.66406
0.69531
0.69922
0.70508
0.70898
0.71484
0.71484
0.70898
0.70898
0.70898
0.70508
0.69922
0.68945
0.68945
0.67969
0.67969
0.67578
0.66016
0.65039
0.63477
0.625
0.61523
0.60938
0.60938
0.61523
0.62891
0.64453
0.66406
0.68555
0.69531
0.70898
0.71484
0.7207
0.7207
0.72461
0.73047
0.72461
0.72461
0.72461
0.7207
0.7207
0.7207
0.72461
0.7207
0.7207
0.7207
0.7207
0.7207
0.71484
0.71484
0.71484
0.70898
0.70898
0.71484
0.71484
0.71484
0.70898
0.71484
0.71484
0.70898
0.70898
0.70898
0.70898
0.70508
0.69531
0.68945
0.67969
0.67969
0.68555
0.68945
0.69531
0.69922
0.70898
0.71484
0.71484
0.71484
0.7207
0.7207
0.7207
0.73438
0.7207
0.64063
0.48047
0.39063
0.46484
0.59961
0.67578
0.69922
0.70898
0.71484
0.71484
0.7207
0.71484
0.71484
0.70898
0.70508
0.69922
0.69922
0.69531
0.68945
0.67969
0.67578
0.66992
0.66016
0.65039
0.63477
0.625
0.61523
0.60938
0.60547
0.60938
0.61914
0.64063
0.6543
0.67578
0.69531
0.70898
0.71484
0.7207
0.7207
0.72461
0.72461
0.72461
0.72461
0.72461
0.72461
0.72461
0.7207
0.7207
0.71484
0.71484
0.7207
0.7207
0.7207
0.7207
0.7207
0.71484
0.71484
0.71484
0.7207
0.7207
0.7207
0.7207
0.7207
0.7207
0.7207
0.7207
0.71484
0.70898
0.70898
0.69922
0.68945
0.68555
0.68555
0.68945
0.68945
0.69922
0.70508
0.71484
0.7207
0.7207
0.71484
0.71484
0.71484
0.7207
0.72461
0.67969
0.54492
0.4043
0.39063
0.54492
0.6543
0.69922
0.70898
0.70898
0.70898
0.70898
0.71484
0.71484
0.70898
0.70508
0.69922
0.69922
0.69531
0.68945
0.68945
0.67969
0.66992
0.6543
0.64453
0.62891
0.61523
0.60938
0.60547
0.60547
0.60547
0.61523
0.62891
0.64453
0.66992
0.68555
0.70508
0.71484
0.7207
0.72461
0.72461
0.72461
0.72461
0.72461
0.7207
0.7207
0.7207
0.7207
0.72461
0.7207
0.7207
0.71484
0.70898
0.70898
0.70898
0.70898
0.70898
0.71484
0.71484
0.71484
0.71484
0.71484
0.71484
0.71484
0.7207
0.7207
0.7207
0.71484
0.71484
0.70508
0.69531
0.68945
0.68555
0.68945
0.68945
0.69531
0.69922
0.70508
0.70898
0.71484
0.71484
0.7207
0.7207
0.7207
0.73047
0.73438
0.69531
0.57031
0.41992
0.39063
0.51953
0.64063
0.69531
0.70898
0.70898
0.70898
0.71484
0.70508
0.70508
0.70508
0.69922
0.69922
0.69531
0.69531
0.68945
0.67969
0.67578
0.66992
0.66016
0.65039
0.64453
0.62891
0.61523
0.60938
0.60547
0.60547
0.60938
0.625
0.64453
0.66406
0.68555
0.69922
0.70898
0.71484
0.71484
0.7207
0.7207
0.7207
0.7207
0.7207
0.7207
0.7207
0.71484
0.71484
0.70898
0.70898
0.70898
0.70898
0.71484
0.70898
0.70898
0.70898
0.70898
0.70898
0.70898
0.71484
0.71484
0.71484
0.71484
0.71484
0.70898
0.70898
0.70508
0.69922
0.69531
0.68945
0.68555
0.67969
0.67969
0.68555
0.68555
0.68945
0.69531
0.70508
0.70898
0.71484
0.70898
0.70898
0.70898
0.71484
0.72461
0.71484
0.625
0.47461
0.38477
0.45508
0.58008
0.6543
0.67969
0.69531
0.69922
0.70898
0.71484
0.7207
0.7207
0.71484
0.70508
0.69922
0.69922
0.69531
0.68945
0.68555
0.67578
0.66992
0.6543
0.64453
0.62891
0.61914
0.61523
0.60938
0.60547
0.60547
0.61523
0.63477
0.65039
0.66992
0.68945
0.69922
0.70898
0.71484
0.71484
0.7207
0.7207
0.7207
0.7207
0.7207
0.7207
0.7207
0.7207
0.7207
0.7207
0.71484
0.71484
0.70898
0.70898
0.71484
0.71484
0.70898
0.70898
0.70898
0.70898
0.70508
0.70508
0.70898
0.70898
0.70898
0.70898
0.70508
0.69922
0.69531
0.69531
0.68945
0.67578
0.67578
0.67578
0.67969
0.67969
0.68945
0.69531
0.69922
0.69922
0.70508
0.70898
0.70898
0.70898
0.71484
0.7207
0.66016
0.52539
0.39453
0.38477
0.53906
0.65039
0.68945
0.69531
0.69922
0.69922
0.70898
0.71484
0.71484
0.70898
0.70898
0.70508
0.69922
0.69531
0.68945
0.67969
0.67578
0.66992
0.66406
0.6543
0.64063
0.625
0.61523
0.60547
0.60547
0.60938
0.61914
0.63477
0.6543
0.67578
0.68945
0.70508
0.71484
0.7207
0.72461
0.73047
0.73438
0.72461
0.72461
0.72461
0.72461
0.72461
0.7207
0.7207
0.7207
0.7207
0.7207
0.72461
0.7207
0.7207
0.7207
0.7207
0.7207
0.72461
0.72461
0.72461
0.72461
0.72461
0.7207
0.7207
0.7207
0.7207
0.71484
0.70898
0.70508
0.69922
0.68945
0.68555
0.68555
0.68945
0.68945
0.69531
0.70508
0.71484
0.7207
0.7207
0.71484
0.71484
0.71484
0.72461
0.73438
0.71484
0.60547
0.44922
0.39453
0.49414
0.62891
0.69531
0.70898
0.70898
0.71484
0.71484
0.7207
0.7207
0.71484
0.71484
0.70898
0.70508
0.69922
0.69922
0.69531
0.68555
0.67578
0.66016
0.65039
0.63477
0.61523
0.60547
0.59961
0.5957
0.5957
0.5957
0.60547
0.625
0.65039
0.66992
0.68555
0.69531
0.69922
0.70898
0.71484
0.71484
0.71484
0.71484
0.71484
0.7207
0.71484
0.71484
0.71484
0.70898
0.70898
0.70898
0.70898
0.70898
0.70898
0.70898
0.70898
0.70898
0.70898
0.70898
0.70508
0.70508
0.70508
0.70508
0.70898
0.70898
0.70898
0.70508
0.69922
0.69531
0.68945
0.68945
0.67969
0.67969
0.67969
0.67969
0.68945
0.69531
0.70508
0.71484
0.71484
0.71484
0.71484
0.7207
0.72461
0.73047
0.71484
0.63477
0.48047
0.39063
0.46484
0.59961
0.67578
0.69531
0.69922
0.70508
0.70898
0.70898
0.71484
0.71484
0.70898
0.70508
0.69922
0.69922
0.69531
0.68945
0.67969
0.67578
0.66992
0.66016
0.65039
0.63477
0.61914
0.60938
0.60938
0.60938
0.60938
0.625
0.63477
0.6543
0.67578
0.68945
0.70898
0.71484
0.7207
0.72461
0.73047
0.73047
0.72461
0.72461
0.72461
0.72461
0.72461
0.72461
0.73047
0.73047
0.72461
0.7207
0.7207
0.7207
0.7207
0.7207
0.72461
0.72461
0.72461
0.72461
0.7207
0.7207
0.7207
0.7207
0.7207
0.7207
0.7207
0.7207
0.71484
0.70898
0.70898
0.69922
0.69531
0.69531
0.69922
0.69922
0.70508
0.70898
0.71484
0.71484
0.71484
0.7207
0.7207
0.72461
0.72461
0.73438
0.7207
0.625
0.46484
0.38477
0.46484
0.5957
0.66406
0.68945
0.70508
0.70898
0.71484
0.71484
0.71484
0.71484
0.71484
0.70898
0.70898
0.70898
0.70508
0.69531
0.68945
0.67969
0.67578
0.66016
0.65039
0.63477
0.625
0.61523
0.60938
0.60938
0.60938
0.625
0.64453
0.66406
0.68555
0.69531
0.70898
0.71484
0.7207
0.7207
0.72461
0.72461
0.73047
0.72461
0.72461
0.7207
0.7207
0.7207
0.7207
0.7207
0.7207
0.7207
0.7207
0.7207
0.71484
0.71484
0.71484
0.71484
0.71484
0.71484
0.7207
0.7207
0.7207
0.7207
0.71484
0.71484
0.70898
0.70898
0.70898
0.70508
0.69531
0.68555
0.67969
0.67969
0.68555
0.68555
0.69531
0.70898
0.70898
0.70898
0.70898
0.70898
0.70898
0.70898
0.7207
0.72461
0.66406
0.52539
0.40039
0.39063
0.56055
0.66016
0.69531
0.69922
0.70508
0.70898
0.70898
0.70898
0.70898
0.70508
0.69922
0.69531
0.69531
0.68945
0.68945
0.67969
0.67578
0.66992
0.6543
0.64453
0.62891
0.61914
0.60938
0.60547
0.60547
0.60547
0.60938
0.625
0.64453
0.66406
0.68555
0.69531
0.70898
0.71484
0.7207
0.72461
0.72461
0.72461
0.7207
0.7207
0.7207
0.7207
0.7207
0.7207
0.7207
0.71484
0.71484
0.70898
0.70898
0.71484
0.70898
0.71484
0.71484
0.70898
0.70898
0.70898
0.70898
0.70898
0.71484
0.71484
0.71484
0.70898
0.70508
0.69531
0.69531
0.68945
0.67969
0.67969
0.67969
0.68555
0.68555
0.68945
0.69531
0.69922
0.70898
0.70898
0.71484
0.71484
0.71484
0.71484
0.72461
0.69922
0.5957
0.43945
0.38477
0.48047
0.61914
0.69531
0.70898
0.70508
0.70898
0.70898
0.71484
0.71484
0.70898
0.70898
0.70508
0.69922
0.69531
0.69531
0.68945
0.67969
0.67578
0.66992
0.6543
0.64453
0.62891
0.61914
0.60938
0.60547
0.60547
0.60938
0.625
0.64063
0.66016
0.67969
0.69531
0.70508
0.70898
0.71484
0.7207
0.7207
0.72461
0.72461
0.72461
0.7207
0.7207
0.7207
0.71484
0.71484
0.71484
0.71484
0.70898
0.70898
0.70898
0.70898
0.70898
0.70898
0.70898
0.71484
0.71484
0.71484
0.70898
0.70898
0.70898
0.70898
0.70898
0.70898
0.70508
0.69922
0.69531
0.68555
0.67969
0.67969
0.68555
0.68945
0.68945
0.69531
0.70508
0.70898
0.71484
0.70898
0.70898
0.70898
0.71484
0.72461
0.73047
0.66406
0.51953
0.39453
0.39063
0.55078
0.65039
0.68945
0.69922
0.70898
0.71484
0.71484
0.71484
0.70898
0.70508
0.70898
0.70508
0.69922
0.69922
0.69531
0.68945
0.67969
0.66992
0.66016
0.65039
0.63477
0.625
0.61523
0.60547
0.60547
0.60547
0.61914
0.62891
0.6543
0.67578
0.69531
0.70898
0.7207
0.7207
0.72461
0.72461
0.73047
0.73047
0.73047
0.73047
0.73047
0.73047
0.72461
0.72461
0.7207
0.7207
0.7207
0.7207
0.7207
0.7207
0.7207
0.71484
0.71484
0.71484
0.71484
0.71484
0.71484
0.7207
0.71484
0.71484
0.71484
0.71484
0.70898
0.70898
0.70508
0.69922
0.69531
0.68945
0.68945
0.68945
0.69531
0.69531
0.70898
0.71484
0.7207
0.7207
0.7207
0.7207
0.7207
0.72461
0.73438
0.70508
0.58984
0.43555
0.39453
0.50977
0.62891
0.68945
0.69922
0.70898
0.71484
0.71484
0.71484
0.71484
0.71484
0.71484
0.70898
0.70898
0.70508
0.69922
0.69531
0.68945
0.67969
0.66992
0.6543
0.64453
0.62891
0.61523
0.60938
0.60938
0.60938
0.61914
0.62891
0.65039
0.66992
0.68945
0.70508
0.71484
0.72461
0.73047
0.73438
0.73438
0.73438
0.73438
0.73047
0.72461
0.72461
0.72461
0.72461
0.7207
0.7207
0.7207
0.7207
0.71484
0.71484
0.71484
0.71484
0.71484
0.71484
0.71484
0.71484
0.71484
0.71484
0.71484
0.71484
0.7207
0.71484
0.70898
0.70508
0.69922
0.68945
0.68555
0.67969
0.68555
0.68945
0.68945
0.69531
0.69922
0.70898
0.70898
0.70898
0.70898
0.71484
0.71484
0.7207
0.72461
0.68555
0.56055
0.41016
0.38086
0.52539
0.64063
0.69531
0.69922
0.69922
0.69922
0.69922
0.69922
0.69922
0.69922
0.69922
0.69531
0.69531
0.69531
0.68945
0.67969
0.67578
0.66992
0.6543
0.64453
0.63477
0.625
0.60938
0.60547
0.59961
0.59961
0.60938
0.625
0.64453
0.66016
0.67578
0.69531
0.69922
0.70898
0.71484
0.71484
0.7207
0.7207
0.7207
0.71484
0.71484
0.71484
0.70898
0.70898
0.70898
0.70508
0.70508
0.70508
0.70508
0.69922
0.69922
0.69922
0.69922
0.69922
0.70508
0.70898
0.70898
0.70898
0.70898
0.70898
0.70898
0.70898
0.70508
0.70508
0.69922
0.68945
0.67969
0.67969
0.67969
0.67969
0.68555
0.68945
0.69922
0.70898
0.71484
0.71484
0.71484
0.71484
0.71484
0.7207
0.72461
0.67969
0.53906
0.39453
0.38086
0.53906
0.64453
0.69531
0.69922
0.70508
0.70898
0.71484
0.71484
0.71484
0.70898
0.70508
0.69922
0.69531
0.69531
0.69531
0.68945
0.68555
0.67578
0.66406
0.6543
0.64453
0.62891
0.61523
0.60938
0.60938
0.60938
0.61914
0.62891
0.64453
0.66406
0.68555
0.69531
0.70898
0.71484
0.7207
0.72461
0.72461
0.7207
0.7207
0.7207
0.7207
0.7207
0.7207
0.71484
0.71484
0.70898
0.70898
0.70898
0.70898
0.70898
0.70898
0.70898
0.70898
0.70898
0.70898
0.70898
0.70898
0.70898
0.71484
0.71484
0.71484
0.71484
0.70898
0.70508
0.69922
0.69922
0.68945
0.68555
0.68555
0.68945
0.68945
0.68945
0.69531
0.69922
0.70898
0.70898
0.70898
0.70508
0.70508
0.70898
0.71484
0.7207
0.61914
0.47461
0.38086
0.44531
0.57031
0.65039
0.67969
0.69531
0.69922
0.70898
0.70898
0.70898
0.71484
0.71484
0.70898
0.70898
0.70898
0.69922
0.69531
0.68555
0.67969
0.67578
0.66016
0.65039
0.63477
0.62891
0.61523
0.60938
0.60547
0.60938
0.625
0.64063
0.6543
0.67578
0.68945
0.69922
0.70508
0.71484
0.7207
0.72461
0.72461
0.72461
0.7207
0.72461
0.72461
0.72461
0.72461
0.7207
0.7207
0.7207
0.72461
0.72461
0.72461
0.72461
0.72461
0.7207
0.72461
0.72461
0.72461
0.72461
0.72461
0.72461
0.72461
0.72461
0.7207
0.7207
0.71484
0.70898
0.69922
0.69531
0.68945
0.68555
0.67969
0.68555
0.68945
0.69922
0.70508
0.70898
0.70898
0.71484
0.71484
0.71484
0.71484
0.7207
0.70508
0.60938
0.45508
0.39063
0.48438
0.61523
0.68555
0.69922
0.70508
0.70898
0.71484
0.7207
0.7207
0.71484
0.71484
0.70898
0.70898
0.69922
0.69922
0.69531
0.68945
0.67969
0.67578
0.66016
0.65039
0.64063
0.62891
0.625
0.61523
0.61523
0.61523
0.62891
0.64063
0.66406
0.68555
0.69922
0.70898
0.71484
0.7207
0.72461
0.72461
0.72461
0.72461
0.7207
0.7207
0.7207
0.72461
0.7207
0.7207
0.71484
0.71484
0.71484
0.71484
0.71484
0.71484
0.71484
0.71484
0.71484
0.70898
0.70898
0.70898
0.70898
0.71484
0.71484
0.71484
0.71484
0.70898
0.70898
0.69922
0.69531
0.68945
0.68555
0.67969
0.68555
0.68555
0.68945
0.69922
0.70508
0.70898
0.70508
0.69922
0.69922
0.70508
0.71484
0.7207
0.68555
0.57031
0.41992
0.38086
0.50586
0.62891
0.68945
0.69922
0.70508
0.70508
0.70508
0.70898
0.70898
0.70898
0.70898
0.70508
0.69922
0.69531
0.68945
0.67969
0.67578
0.66992
0.6543
0.64453
0.63477
0.625
0.60938
0.60547
0.5957
0.59961
0.60938
0.625
0.64453
0.66406
0.67969
0.69531
0.70898
0.71484
0.7207
0.72461
0.72461
0.7207
0.7207
0.72461
0.72461
0.7207
0.71484
0.71484
0.71484
0.71484
0.71484
0.71484
0.7207
0.71484
0.71484
0.71484
0.71484
0.71484
0.71484
0.7207
0.7207
0.7207
0.7207
0.71484
0.71484
0.71484
0.70898
0.70898
0.70508
0.69922
0.68945
0.68555
0.67969
0.67969
0.68945
0.69922
0.70898
0.71484
0.7207
0.7207
0.7207
0.71484
0.71484
0.72461
0.73047
0.67969
0.54492
0.4043
0.39453
0.55078
0.6543
0.69922
0.70898
0.71484
0.7207
0.7207
0.7207
0.7207
0.71484
0.71484
0.70898
0.70898
0.70508
0.69922
0.69922
0.69531
0.67969
0.66992
0.6543
0.64453
0.63477
0.625
0.61523
0.60938
0.60938
0.61523
0.62891
0.64453
0.66406
0.68555
0.69922
0.70898
0.7207
0.7207
0.72461
0.73047
0.72461
0.72461
0.72461
0.73047
0.73047
0.72461
0.7207
0.7207
0.7207
0.7207
0.72461
0.72461
0.72461
0.72461
0.72461
0.73047
0.72461
0.72461
0.72461
0.72461
0.72461
0.72461
0.72461
0.73047
0.72461
0.7207
0.7207
0.71484
0.70898
0.70508
0.69922
0.69531
0.69531
0.69531
0.69531
0.69922
0.70898
0.71484
0.7207
0.7207
0.7207
0.7207
0.72461
0.73047
0.73438
0.69922
0.58008
0.42969
0.39063
0.51563
0.63477
0.68945
0.70508
0.71484
0.7207
0.7207
0.72461
0.72461
0.72461
0.7207
0.71484
0.71484
0.70898
0.69922
0.69922
0.69531
0.68945
0.67578
0.66406
0.65039
0.63477
0.625
0.61523
0.60938
0.60938
0.61914
0.62891
0.65039
0.66992
0.68945
0.69922
0.70898
0.7207
0.7207
0.72461
0.72461
0.72461
0.72461
0.7207
0.7207
0.7207
0.7207
0.7207
0.7207
0.7207
0.71484
0.71484
0.71484
0.7207
0.71484
0.7207
0.7207
0.7207
0.71484
0.7207
0.7207
0.7207
0.7207
0.7207
0.72461
0.72461
0.72461
0.7207
0.7207
0.70898
0.69922
0.69531
0.69531
0.69531
0.69531
0.69531
0.69922
0.70898
0.71484
0.71484
0.71484
0.71484
0.71484
0.71484
0.72461
0.73047
0.6543
0.51563
0.40039
0.44531
0.58008
0.67578
0.70898
0.71484
0.71484
0.71484
0.7207
0.7207
0.71484
0.71484
0.71484
0.70898
0.70898
0.70508
0.69531
0.68945
0.67969
0.67578
0.66406
0.6543
0.64453
0.62891
0.61523
0.60938
0.60938
0.60938
0.61914
0.63477
0.6543
0.67578
0.69531
0.70898
0.71484
0.7207
0.72461
0.72461
0.72461
0.72461
0.72461
0.72461
0.72461
0.72461
0.72461
0.72461
0.7207
0.7207
0.7207
0.7207
0.7207
0.7207
0.7207
0.7207
0.7207
0.72461
0.72461
0.7207
0.72461
0.72461
0.72461
0.72461
0.7207
0.71484
0.70898
0.70898
0.70898
0.70508
0.69531
0.68945
0.68945
0.68945
0.68945
0.68945
0.69922
0.70898
0.71484
0.7207
0.7207
0.7207
0.7207
0.72461
0.73438
0.71484
0.625
0.47461
0.39063
0.47461
0.60938
0.68555
0.70508
0.70898
0.71484
0.7207
0.7207
0.7207
0.71484
0.70898
0.70898
0.70508
0.69922
0.69922
0.69531
0.68945
0.67969
0.67578
0.66016
0.64453
0.62891
0.625
0.60938
0.60547
0.60547
0.60938
0.61914
0.63477
0.6543
0.67578
0.68945
0.69922
0.71484
0.7207
0.72461
0.7207
0.7207
0.7207
0.7207
0.7207
0.7207
0.72461
0.7207
0.7207
0.7207
0.71484
0.71484
0.71484
0.71484
0.71484
0.7207
0.7207
0.7207
0.7207
0.7207
0.7207
0.7207
0.7207
0.7207
0.7207
0.72461
0.72461
0.7207
0.71484
0.70898
0.69922
0.69531
0.68945
0.68945
0.68945
0.68945
0.68945
0.69531
0.69922
0.70898
0.71484
0.71484
0.71484
0.70898
0.71484
0.72461
0.71484
0.63477
0.48438
0.38477
0.44922
0.58008
0.66016
0.68945
0.69922
0.70508
0.70898
0.71484
0.71484
0.71484
0.71484
0.70898
0.70508
0.69922
0.69531
0.68945
0.68555
0.67969
0.67578
0.66406
0.65039
0.64063
0.62891
0.61523
0.60938
0.60938
0.61523
0.625
0.64453
0.66016
0.67969
0.69531
0.69922
0.71484
0.7207
0.72461
0.72461
0.72461
0.73047
0.72461
0.72461
0.7207
0.7207
0.7207
0.7207
0.7207
0.7207
0.71484
0.71484
0.71484
0.71484
0.71484
0.71484
0.71484
0.71484
0.71484
0.71484
0.71484
0.7207
0.7207
0.7207
0.7207
0.7207
0.7207
0.71484
0.71484
0.70898
0.69922
0.69531
0.68945
0.69531
0.69922
0.69922
0.70508
0.70898
0.71484
0.71484
0.7207
0.7207
0.7207
0.7207
0.72461
0.73438
0.68555
0.55078
0.41016
0.39063
0.53906
0.64453
0.69531
0.70898
0.71484
0.7207
0.7207
0.71484
0.71484
0.71484
0.71484
0.71484
0.71484
0.70898
0.69922
0.69531
0.68555
0.67578
0.66406
0.6543
0.64453
0.62891
0.61914
0.60938
0.60938
0.60938
0.61914
0.63477
0.6543
0.67578
0.69531
0.70508
0.71484
0.7207
0.72461
0.73438
0.73438
0.73438
0.73438
0.73438
0.73438
0.72461
0.72461
0.72461
0.7207
0.7207
0.7207
0.7207
0.7207
0.7207
0.7207
0.7207
0.71484
0.71484
0.71484
0.71484
0.7207
0.7207
0.7207
0.71484
0.71484
0.71484
0.71484
0.71484
0.70898
0.70508
0.69531
0.68945
0.68945
0.68945
0.69531
0.69531
0.69922
0.70898
0.71484
0.7207
0.7207
0.7207
0.7207
0.72461
0.73438
0.73438
0.67969
0.53906
0.4043
0.39453
0.56055
0.66992
0.70508
0.71484
0.71484
0.71484
0.7207
0.7207
0.71484
0.71484
0.71484
0.70898
0.70898
0.69922
0.69531
0.68945
0.67969
0.66992
0.66016
0.65039
0.63477
0.625
0.61523
0.60938
0.60938
0.60938
0.61523
0.62891
0.64453
0.66992
0.68555
0.69922
0.70898
0.7207
0.72461
0.72461
0.7207
0.7207
0.7207
0.7207
0.7207
0.7207
0.72461
0.7207
0.71484
0.71484
0.71484
0.71484
0.71484
0.71484
0.7207
0.71484
0.70898
0.70898
0.70898
0.70898
0.70898
0.71484
0.71484
0.71484
0.71484
0.71484
0.70898
0.70508
0.69922
0.69531
0.68945
0.67969
0.67969
0.68555
0.68555
0.68945
0.69531
0.70508
0.70898
0.71484
0.71484
0.71484
0.71484
0.71484
0.72461
0.71484
0.64063
0.49023
0.38086
0.43945
0.57422
0.66406
0.69531
0.69922
0.70508
0.70898
0.70898
0.70898
0.70898
0.70508
0.69922
0.69922
0.68945
0.68945
0.68555
0.67969
0.67578
0.66406
0.6543
0.64453
0.62891
0.61914
0.60938
0.60547
0.60547
0.60547
0.61523
0.62891
0.65039
0.66992
0.68555
0.69922
0.70898
0.71484
0.7207
0.7207
0.7207
0.72461
0.7207
0.7207
0.71484
0.71484
0.71484
0.71484
0.71484
0.71484
0.71484
0.71484
0.70898
0.70898
0.71484
0.71484
0.71484
0.71484
0.71484
0.71484
0.71484
0.70898
0.70898
0.71484
0.71484
0.71484
0.71484
0.71484
0.70898
0.69922
0.69531
0.68945
0.68945
0.69531
0.69922
0.69922
0.69922
0.70898
0.70898
0.71484
0.71484
0.71484
0.71484
0.71484
0.73047
0.73438
0.64453
0.49414
0.39063
0.44531
0.57422
0.6543
0.68945
0.70898
0.71484
0.7207
0.72461
0.7207
0.71484
0.71484
0.70898
0.70898
0.69922
0.69922
0.69531
0.68945
0.67969
0.67578
0.66406
0.6543
0.64063
0.62891
0.625
0.61523
0.60938
0.61523
0.625
0.64063
0.6543
0.67969
0.69531
0.70898
0.7207
0.72461
0.72461
0.72461
0.72461
0.72461
0.72461
0.72461
0.72461
0.72461
0.72461
0.7207
0.7207
0.7207
0.71484
0.71484
0.7207
0.7207
0.71484
0.71484
0.71484
0.71484
0.7207
0.7207
0.7207
0.7207
0.7207
0.7207
0.7207
0.7207
0.71484
0.70898
0.70508
0.69922
0.69531
0.68945
0.69531
0.69531
0.69531
0.69531
0.70508
0.71484
0.71484
0.7207
0.7207
0.71484
0.71484
0.7207
0.72461
0.66406
0.52539
0.4043
0.39453
0.56445
0.66406
0.69531
0.70898
0.70898
0.71484
0.71484
0.71484
0.71484
0.70898
0.70508
0.69922
0.69922
0.69531
0.68945
0.68945
0.67969
0.67578
0.66016
0.64453
0.63477
0.61914
0.60938
0.60547
0.60547
0.60547
0.60938
0.625
0.64453
0.66406
0.68555
0.69922
0.70898
0.71484
0.7207
0.72461
0.72461
0.72461
0.72461
0.72461
0.72461
0.72461
0.72461
0.72461
0.72461
0.72461
0.7207
0.71484
0.71484
0.71484
0.71484
0.71484
0.71484
0.7207
0.7207
0.7207
0.7207
0.7207
0.7207
0.7207
0.72461
0.7207
0.71484
0.70898
0.69922
0.69531
0.68945
0.68945
0.68945
0.69531
0.69922
0.70898
0.71484
0.7207
0.7207
0.71484
0.71484
0.71484
0.7207
0.73438
0.71484
0.625
0.4707
0.39063
0.4707
0.60547
0.68555
0.70898
0.70898
0.70898
0.71484
0.71484
0.71484
0.70898
0.70898
0.70508
0.69922
0.69922
0.69531
0.68945
0.67969
0.67578
0.66406
0.6543
0.64453
0.62891
0.61523
0.60938
0.60547
0.60547
0.60938
0.61914
0.64453
0.66406
0.68555
0.69922
0.70898
0.71484
0.71484
0.7207
0.72461
0.72461
0.72461
0.72461
0.72461
0.72461
0.72461
0.72461
0.7207
0.7207
0.7207
0.7207
0.71484
0.71484
0.71484
0.71484
0.70898
0.70898
0.70898
0.70898
0.71484
0.7207
0.7207
0.71484
0.71484
0.71484
0.70898
0.69922
0.69922
0.69531
0.68945
0.68555
0.68555
0.68945
0.68945
0.68945
0.69922
0.70898
0.71484
0.7207
0.7207
0.7207
0.7207
0.73438
0.74023
0.68945
0.56445
0.41992
0.39063
0.53516
0.65039
0.69531
0.70508
0.70898
0.70898
0.71484
0.71484
0.71484
0.70898
0.70898
0.69922
0.69531
0.68945
0.68945
0.67969
0.67969
0.66992
0.66016
0.65039
0.63477
0.61914
0.60938
0.60547
0.59961
0.59961
0.60547
0.61914
0.64063
0.6543
0.67578
0.68945
0.70508
0.71484
0.71484
0.7207
0.7207
0.72461
0.72461
0.7207
0.7207
0.7207
0.7207
0.7207
0.71484
0.71484
0.71484
0.71484
0.70898
0.71484
0.70898
0.70898
0.70898
0.71484
0.71484
0.71484
0.71484
0.71484
0.71484
0.71484
0.71484
0.71484
0.71484
0.70898
0.70508
0.69922
0.68555
0.67969
0.67969
0.68945
0.68945
0.69531
0.69922
0.70898
0.70898
0.70898
0.70898
0.70898
0.71484
0.71484
0.72461
0.71484
0.63477
0.48438
0.38477
0.44531
0.57422
0.6543
0.68945
0.69922
0.70898
0.71484
0.71484
0.71484
0.70898
0.70898
0.70898
0.70898
0.70898
0.70508
0.69531
0.68945
0.67969
0.66992
0.66016
0.64453
0.62891
0.625
0.61523
0.60547
0.60547
0.60547
0.61914
0.64063
0.6543
0.67578
0.69531
0.70508
0.71484
0.71484
0.7207
0.7207
0.7207
0.72461
0.72461
0.7207
0.7207
0.71484
0.71484
0.70898
0.70898
0.71484
0.71484
0.70898
0.70898
0.70898
0.70898
0.70898
0.70898
0.70898
0.70898
0.70898
0.71484
0.71484
0.71484
0.71484
0.71484
0.70898
0.70898
0.70508
0.69922
0.68945
0.68555
0.68555
0.68945
0.69531
0.69531
0.69922
0.70898
0.71484
0.70898
0.71484
0.70898
0.70898
0.71484
0.7207
0.69922
0.59961
0.44531
0.39063
0.49023
0.61914
0.67969
0.69531
0.69922
0.69922
0.70508
0.70898
0.70898
0.70508
0.69922
0.69922
0.69531
0.69531
0.69531
0.68945
0.68555
0.67578
0.66406
0.6543
0.64063
0.625
0.60938
0.60547
0.60547
0.60547
0.60938
0.625
0.64453
0.66016
0.67969
0.69531
0.70898
0.7207
0.7207
0.72461
0.72461
0.72461
0.72461
0.72461
0.72461
0.72461
0.72461
0.72461
0.72461
0.72461
0.72461
0.7207
0.7207
0.7207
0.7207
0.7207
0.72461
0.72461
0.7207
0.7207
0.7207
0.7207
0.7207
0.7207
0.7207
0.7207
0.71484
0.71484
0.70898
0.69922
0.68945
0.68945
0.69531
0.69531
0.69922
0.70508
0.71484
0.7207
0.7207
0.7207
0.7207
0.7207
0.7207
0.72461
0.73438
0.70898
0.59961
0.43945
0.38477
0.49414
0.62891
0.69531
0.70898
0.71484
0.7207
0.7207
0.7207
0.7207
0.7207
0.71484
0.71484
0.70898
0.70508
0.69922
0.69531
0.68945
0.67969
0.67578
0.66016
0.65039
0.63477
0.625
0.61523
0.60938
0.60938
0.61523
0.62891
0.64453
0.66992
0.68555
0.70508
0.71484
0.7207
0.72461
0.72461
0.72461
0.7207
0.72461
0.72461
0.72461
0.7207
0.7207
0.71484
0.71484
0.71484
0.71484
0.7207
0.71484
0.71484
0.70898
0.71484
0.71484
0.71484
0.7207
0.7207
0.71484
0.71484
0.71484
0.71484
0.71484
0.71484
0.70898
0.70898
0.69922
0.68945
0.67969
0.67969
0.68555
0.68945
0.68945
0.69531
0.69922
0.70898
0.71484
0.71484
0.71484
0.71484
0.71484
0.7207
0.73047
0.68945
0.56445
0.41992
0.38477
0.50977
0.61914
0.66992
0.68555
0.68945
0.69531
0.69922
0.69922
0.69922
0.69531
0.69531
0.68945
0.68945
0.68555
0.67969
0.67578
0.66992
0.66016
0.6543
0.64453
0.62891
0.61523
0.60938
0.60547
0.59961
0.60547
0.60547
0.61914
0.64063
0.66016
0.67969
0.69531
0.70508
0.70898
0.71484
0.71484
0.71484
0.71484
0.71484
0.71484
0.71484
0.71484
0.71484
0.70898
0.70898
0.70508
0.70508
0.70508
0.70508
0.70508
0.70898
0.70898
0.70898
0.70508
0.70508
0.70508
0.69922
0.70508
0.70508
0.70898
0.70898
0.70898
0.70898
0.69922
0.69531
0.68945
0.68555
0.67969
0.68555
0.68945
0.69531
0.69531
0.69531
0.70508
0.70898
0.70898
0.71484
0.71484
0.71484
0.71484
0.72461
0.70508
0.60547
0.44922
0.39063
0.48047
0.60938
0.67969
0.69531
0.69531
0.69922
0.70508
0.70898
0.71484
0.71484
0.71484
0.70898
0.70508
0.69922
0.69531
0.68945
0.67969
0.66992
0.66406
0.6543
0.64063
0.625
0.61523
0.60938
0.60547
0.60547
0.60938
0.61914
0.64063
0.66016
0.67578
0.69531
0.69922
0.70898
0.71484
0.71484
0.7207
0.7207
0.7207
0.7207
0.7207
0.71484
0.71484
0.7207
0.71484
0.71484
0.7207
0.7207
0.71484
0.71484
0.70898
0.70898
0.70898
0.70898
0.70898
0.71484
0.71484
0.71484
0.71484
0.71484
0.71484
0.71484
0.71484
0.70898
0.70508
0.69531
0.68945
0.67969
0.67969
0.68945
0.68945
0.69531
0.70508
0.71484
0.7207
0.7207
0.71484
0.71484
0.71484
0.7207
0.72461
0.68945
0.57031
0.42578
0.39453
0.5293
0.64453
0.69531
0.70898
0.70898
0.71484
0.71484
0.71484
0.71484
0.70898
0.69922
0.69531
0.69531
0.68945
0.68945
0.67969
0.67578
0.66992
0.6543
0.64453
0.62891
0.625
0.61523
0.60938
0.60547
0.60547
0.60938
0.625
0.64063
0.66016
0.67578
0.69531
0.70898
0.71484
0.7207
0.72461
0.72461
0.72461
0.72461
0.72461
0.72461
0.72461
0.7207
0.71484
0.71484
0.71484
0.71484
0.70898
0.70898
0.71484
0.71484
0.71484
0.71484
0.71484
0.71484
0.71484
0.71484
0.71484
0.71484
0.71484
0.70898
0.70508
0.69922
0.69531
0.68945
0.67969
0.67969
0.67969
0.68555
0.68945
0.68945
0.69922
0.70508
0.71484
0.71484
0.7207
0.71484
0.71484
0.71484
0.72461
0.71484
0.64453
0.5
0.39063
0.43945
0.58008
0.67578
0.70508
0.70898
0.70898
0.71484
0.7207
0.71484
0.71484
0.71484
0.71484
0.70898
0.69922
0.69922
0.69531
0.68945
0.67969
0.67578
0.66406
0.65039
0.64063
0.625
0.61523
0.60938
0.60547
0.60938
0.61914
0.63477
0.6543
0.67578
0.68945
0.69531
0.70508
0.71484
0.7207
0.7207
0.72461
0.72461
0.7207
0.7207
0.71484
0.71484
0.71484
0.71484
0.71484
0.71484
0.70898
0.70508
0.69922
0.69922
0.69922
0.69922
0.69922
0.70508
0.70898
0.70898
0.70898
0.70898
0.70898
0.70898
0.70898
0.70898
0.70898
0.70898
0.69922
0.68945
0.68555
0.68555
0.68945
0.68945
0.68945
0.69531
0.70508
0.70898
0.70898
0.70898
0.70898
0.70898
0.71484
0.72461
0.71484
0.64453
0.49023
0.38477
0.43945
0.56445
0.64453
0.67969
0.69531
0.69922
0.70898
0.71484
0.71484
0.71484
0.70898
0.70508
0.69922
0.69922
0.69531
0.68945
0.68555
0.67969
0.66992
0.66016
0.64453
0.62891
0.61523
0.60938
0.60547
0.60547
0.60547
0.61523
0.62891
0.65039
0.67578
0.68945
0.69922
0.70898
0.71484
0.7207
0.7207
0.7207
0.7207
0.72461
0.72461
0.7207
0.7207
0.7207
0.71484
0.71484
0.71484
0.71484
0.70898
0.70898
0.71484
0.71484
0.71484
0.70898
0.70898
0.71484
0.71484
0.71484
0.71484
0.71484
0.71484
0.71484
0.71484
0.70898
0.70508
0.69922
0.68945
0.68555
0.68555
0.68945
0.69531
0.69531
0.69922
0.70898
0.71484
0.71484
0.7207
0.7207
0.71484
0.71484
0.72461
0.70898
0.61523
0.46094
0.39063
0.48438
0.61523
0.68555
0.70508
0.70898
0.70898
0.71484
0.71484
0.71484
0.71484
0.70898
0.70898
0.70508
0.69922
0.69531
0.68945
0.68555
0.67578
0.66406
0.65039
0.63477
0.625
0.60938
0.60547
0.60547
0.60547
0.60938
0.61914
0.64063
0.66016
0.67969
0.69531
0.70898
0.7207
0.72461
0.72461
0.73047
0.73047
0.72461
0.72461
0.72461
0.72461
0.7207
0.7207
0.7207
0.7207
0.71484
0.71484
0.71484
0.71484
0.71484
0.71484
0.71484
0.71484
0.7207
0.71484
0.71484
0.71484
0.71484
0.71484
0.71484
0.71484
0.71484
0.70898
0.70898
0.69922
0.68945
0.68555
0.68945
0.68945
0.69531
0.69922
0.70898
0.7207
0.72461
0.72461
0.7207
0.7207
0.71484
0.72461
0.73438
0.70898
0.59961
0.44922
0.40039
0.50586
0.63477
0.69531
0.70898
0.71484
0.7207
0.7207
0.72461
0.7207
0.71484
0.70898
0.70898
0.70898
0.70508
0.69922
0.69531
0.68555
0.67578
0.66016
0.65039
0.63477
0.62891
0.625
0.61523
0.60938
0.60938
0.60938
0.61914
0.64063
0.6543
0.67578
0.69531
0.70898
0.71484
0.7207
0.72461
0.73047
0.73438
0.73438
0.74023
0.73438
0.72461
0.7207
0.71484
0.71484
0.70898
0.70898
0.70898
0.70898
0.70898
0.70898
0.70898
0.71484
0.71484
0.71484
0.71484
0.71484
0.71484
0.71484
0.7207
0.7207
0.71484
0.71484
0.70898
0.69922
0.69531
0.68945
0.68555
0.68555
0.68555
0.68555
0.68945
0.69531
0.69922
0.70898
0.70898
0.70898
0.71484
0.71484
0.71484
0.72461
0.69922
0.5957
0.44531
0.39063
0.49414
0.61914
0.68555
0.69922
0.70898
0.70898
0.71484
0.71484
0.71484
0.70898
0.70898
0.70508
0.69531
0.68945
0.68555
0.68555
0.67969
0.67578
0.66406
0.6543
0.65039
0.63477
0.625
0.61523
0.60938
0.61523
0.61914
0.62891
0.64453
0.66016
0.67578
0.69531
0.70508
0.71484
0.7207
0.7207
0.72461
0.7207
0.7207
0.72461
0.72461
0.72461
0.72461
0.7207
0.7207
0.7207
0.7207
0.7207
0.7207
0.7207
0.71484
0.71484
0.71484
0.71484
0.71484
0.71484
0.71484
0.71484
0.71484
0.71484
0.71484
0.71484
0.71484
0.70898
0.70898
0.69922
0.69531
0.68945
0.68945
0.68945
0.69531
0.69531
0.69922
0.70898
0.70898
0.70898
0.70898
0.70898
0.71484
0.71484
0.7207
0.70508
0.60547
0.44922
0.38477
0.4707
0.59961
0.67578
0.69531
0.70508
0.70898
0.71484
0.71484
0.71484
0.71484
0.71484
0.71484
0.71484
0.70898
0.70508
0.69922
0.68945
0.67969
0.67578
0.66016
0.65039
0.63477
0.625
0.61523
0.60938
0.60938
0.60938
0.625
0.64063
0.66016
0.67578
0.69531
0.70898
0.7207
0.72461
0.72461
0.72461
0.72461
0.72461
0.73047
0.73047
0.72461
0.7207
0.7207
0.7207
0.72461
0.72461
0.72461
0.72461
0.7207
0.7207
0.72461
0.72461
0.72461
0.72461
0.72461
0.72461
0.72461
0.72461
0.72461
0.72461
0.7207
0.7207
0.7207
0.71484
0.70898
0.70508
0.69531
0.69531
0.69922
0.69922
0.69922
0.70898
0.71484
0.71484
0.71484
0.71484
0.71484
0.71484
0.71484
0.72461
0.68555
0.56445
0.41992
0.38477
0.51953
0.64063
0.69531
0.70508
0.70508
0.70898
0.71484
0.70898
0.70898
0.70898
0.69922
0.69922
0.69531
0.69531
0.68945
0.67969
0.67578
0.66992
0.66016
0.64453
0.63477
0.625
0.60938
0.60547
0.60547
0.60547
0.60938
0.625
0.64063
0.66406
0.68555
0.69531
0.70898
0.71484
0.7207
0.7207
0.72461
0.72461
0.7207
0.7207
0.71484
0.71484
0.71484
0.71484
0.71484
0.71484
0.71484
0.71484
0.71484
0.71484
0.71484
0.7207
0.7207
0.7207
0.7207
0.7207
0.7207
0.7207
0.7207
0.7207
0.7207
0.7207
0.71484
0.71484
0.70898
0.69922
0.68945
0.68555
0.68945
0.68945
0.69922
0.70898
0.71484
0.71484
0.7207
0.71484
0.71484
0.71484
0.71484
0.7207
0.72461
0.68555
0.56445
0.41992
0.39063
0.51563
0.63477
0.68945
0.70508
0.70898
0.71484
0.71484
0.71484
0.71484
0.71484
0.70898
0.70898
0.70508
0.69922
0.69531
0.68945
0.67969
0.67578
0.66016
0.65039
0.64063
0.62891
0.61914
0.60938
0.60938
0.60938
0.60938
0.625
0.64453
0.66992
0.68555
0.69922
0.70898
0.7207
0.72461
0.72461
0.72461
0.72461
0.72461
0.72461
0.72461
0.7207
0.7207
0.71484
0.71484
0.71484
0.71484
0.7207
0.7207
0.7207
0.7207
0.7207
0.7207
0.7207
0.7207
0.7207
0.7207
0.7207
0.7207
0.7207
0.71484
0.71484
0.70898
0.70898
0.70508
0.69531
0.68945
0.68555
0.68555
0.68945
0.68945
0.69531
0.70508
0.71484
0.7207
0.7207
0.71484
0.71484
0.71484
0.7207
0.73047
0.69531
0.57422
0.42578
0.39063
0.50586
0.61914
0.67578
0.69531
0.69922
0.70898
0.71484
0.7207
0.7207
0.7207
0.71484
0.71484
0.70898
0.69922
0.69922
0.69922
0.68945
0.67969
0.66992
0.6543
0.64453
0.62891
0.625
0.61523
0.60938
0.60938
0.61914
0.62891
0.65039
0.67578
0.68945
0.70898
0.71484
0.72461
0.73047
0.73438
0.73047
0.73047
0.72461
0.72461
0.7207
0.71484
0.70898
0.70898
0.70898
0.71484
0.71484
0.70898
0.70898
0.71484
0.71484
0.70898
0.70898
0.70898
0.71484
0.71484
0.71484
0.71484
0.71484
0.71484
0.7207
0.7207
0.7207
0.71484
0.70898
0.69922
0.69531
0.69531
0.69531
0.70508
0.70508
0.70508
0.70898
0.71484
0.71484
0.71484
0.71484
0.72461
0.73438
0.75
0.75977
0.71484
0.58398
0.43555
0.4043
0.5293
0.64063
0.68555
0.69531
0.69531
0.69922
0.70508
0.70898
0.70898
0.70898
0.70508
0.70508
0.70508
0.69531
0.68945
0.68555
0.67969
0.67969
0.67578
0.66406
0.66016
0.65039
0.64063
0.62891
0.62891
0.62891
0.63477
0.64453
0.66406
0.68555
0.70508
0.71484
0.7207
0.72461
0.72461
0.72461
0.7207
0.7207
0.7207
0.7207
0.7207
0.7207
0.7207
0.7207
0.71484
0.71484
0.71484
0.71484
0.71484
0.71484
0.71484
0.70898
0.70898
0.70508
0.70898
0.70898
0.71484
0.71484
0.7207
0.7207
0.71484
0.70898
0.70898
0.70898
0.70508
0.69922
0.68945
0.68945
0.68945
0.68945
0.68945
0.69922
0.70508
0.70898
0.71484
0.71484
0.71484
0.70898
0.70898
0.7207
0.72461
0.66406
0.52539
0.40039
0.39063
0.55078
0.66016
0.69922
0.70898
0.70898
0.70898
0.71484
0.7207
0.71484
0.71484
0.70898
0.70898
0.69922
0.69531
0.69531
0.68945
0.68555
0.67578
0.66992
0.6543
0.64063
0.62891
0.61523
0.61523
0.60938
0.60938
0.625
0.63477
0.6543
0.66992
0.68945
0.69922
0.70898
0.7207
0.7207
0.72461
0.72461
0.72461
0.72461
0.72461
0.7207
0.7207
0.7207
0.71484
0.7207
0.71484
0.71484
0.71484
0.71484
0.71484
0.71484
0.71484
0.7207
0.7207
0.7207
0.7207
0.7207
0.7207
0.7207
0.72461
0.72461
0.7207
0.71484
0.70898
0.70508
0.69531
0.68945
0.68945
0.69531
0.69531
0.69922
0.70898
0.71484
0.71484
0.7207
0.71484
0.71484
0.71484
0.7207
0.73047
0.70898
0.60938
0.45508
0.38477
0.47461
0.60938
0.67969
0.70508
0.70898
0.71484
0.71484
0.71484
0.71484
0.71484
0.71484
0.71484
0.71484
0.70898
0.69922
0.69922
0.68945
0.67969
0.67578
0.66992
0.66016
0.65039
0.64063
0.62891
0.61914
0.61523
0.61523
0.62891
0.64453
0.66992
0.68945
0.69922
0.70898
0.71484
0.7207
0.7207
0.7207
0.7207
0.7207
0.7207
0.72461
0.72461
0.7207
0.7207
0.71484
0.71484
0.71484
0.71484
0.71484
0.70898
0.70898
0.70898
0.70898
0.70898
0.71484
0.71484
0.7207
0.7207
0.7207
0.7207
0.71484
0.71484
0.71484
0.71484
0.70898
0.69922
0.69531
0.69531
0.69531
0.69922
0.69922
0.69922
0.70898
0.71484
0.7207
0.71484
0.71484
0.70898
0.70898
0.71484
0.72461
0.69922
0.58008
0.43555
0.39453
0.50977
0.61914
0.67578
0.69531
0.70898
0.7207
0.7207
0.72461
0.72461
0.72461
0.7207
0.71484
0.70898
0.70508
0.69922
0.69922
0.69531
0.67969
0.66992
0.66016
0.64453
0.63477
0.625
0.61523
0.61523
0.61523
0.61523
0.62891
0.65039
0.66992
0.68945
0.70508
0.71484
0.7207
0.72461
0.72461
0.72461
0.72461
0.7207
0.7207
0.71484
0.7207
0.7207
0.7207
0.7207
0.71484
0.71484
0.71484
0.71484
0.71484
0.71484
0.71484
0.7207
0.71484
0.71484
0.71484
0.71484
0.71484
0.71484
0.7207
0.7207
0.71484
0.71484
0.70898
0.69922
0.69531
0.68945
0.68945
0.69531
0.69922
0.69922
0.70898
0.7207
0.7207
0.7207
0.7207
0.7207
0.72461
0.73438
0.74023
0.71484
0.60547
0.44922
0.38477
0.47461
0.60547
0.67969
0.69922
0.69922
0.70898
0.71484
0.7207
0.7207
0.7207
0.7207
0.71484
0.71484
0.70898
0.70508
0.69531
0.68945
0.67969
0.66992
0.66016
0.64453
0.63477
0.625
0.61523
0.60938
0.60938
0.61523
0.625
0.65039
0.66992
0.68945
0.70898
0.71484
0.7207
0.72461
0.72461
0.72461
0.72461
0.72461
0.72461
0.72461
0.72461
0.72461
0.7207
0.7207
0.7207
0.7207
0.7207
0.7207
0.7207
0.7207
0.7207
0.7207
0.7207
0.7207
0.7207
0.7207
0.72461
0.72461
0.7207
0.7207
0.71484
0.71484
0.70898
0.70898
0.69922
0.68945
0.67969
0.67969
0.68945
0.69531
0.69531
0.70508
0.71484
0.7207
0.7207
0.71484
0.71484
0.71484
0.71484
0.72461
0.73047
0.6543
0.5
0.39063
0.44531
0.58398
0.67969
0.70898
0.70898
0.70898
0.71484
0.7207
0.7207
0.71484
0.71484
0.70898
0.70898
0.70508
0.69922
0.69922
0.69531
0.68555
0.67578
0.66992
0.6543
0.64063
0.62891
0.625
0.61914
0.61523
0.61914
0.625
0.64063
0.66406
0.68555
0.70508
0.7207
0.72461
0.74023
0.74414
0.74414
0.74023
0.74023
0.74414
0.74414
0.74414
0.74414
0.74414
0.74414
0.74414
0.74414
0.74414
0.74414
0.74414
0.74414
0.75
0.75391
0.75391
0.75391
0.75391
0.75391
0.75977
0.75977
0.76563
0.76563
0.76953
0.76953
0.76953
0.76563
0.75977
0.75391
0.75
0.75
0.75977
0.75977
0.76563
0.76953
0.7793
0.78516
0.78906
0.78906
0.78906
0.79883
0.80469
0.82031
0.79883
0.69922
0.53906
0.47461
0.56445
0.70508
0.77539
0.79883
0.80469
0.81055
0.81445
0.81445
0.82031
0.82031
0.82031
0.82031
0.82031
0.81445
0.81055
0.80469
0.79883
0.79492
0.78906
0.7793
0.76953
0.75977
0.74414
0.74023
0.74023
0.74023
0.74023
0.75391
0.77539
0.79883
0.81445
0.83008
0.84375
0.84961
0.85547
0.85938
0.86523
0.86523
0.85938
0.85938
0.85938
0.85547
0.85547
0.85547
0.85938
0.85938
0.85938
0.86523
0.85938
0.85547
0.85547
0.85547
0.85547
0.85547
0.85547
0.85547
0.85938
0.86523
0.85938
0.86523
0.85938
0.84961
0.84961
0.84961
0.84375
0.83398
0.83008
0.83008
0.83008
0.83008
0.83008
0.83008
0.83984
0.84375
0.84375
0.84375
0.83984
0.83398
0.83398
0.84375
0.84375
0.79883
0.66016
0.51953
0.49414
0.63477
0.74023
0.78516
0.79883
0.81055
0.81445
0.82031
0.82031
0.81055
0.81055
0.81055
0.80469
0.80469
0.79883
0.79883
0.78906
0.7793
0.76953
0.75977
0.74414
0.73047
0.71484
0.70898
0.69922
0.69531
0.69531
0.69922
0.71484
0.73047
0.75
0.76563
0.7793
0.78516
0.78906
0.79492
0.79492
0.78906
0.78906
0.78516
0.7793
0.7793
0.7793
0.7793
0.7793
0.7793
0.76953
0.76953
0.76953
0.7793
0.7793
0.7793
0.7793
0.7793
0.7793
0.76953
0.76953
0.76953
0.76953
0.76953
0.76953
0.76953
0.76953
0.76563
0.75977
0.75391
0.74414
0.74023
0.74023
0.74414
0.75
0.75391
0.75391
0.75977
0.75977
0.75977
0.75977
0.76563
0.76563
0.76953
0.77539
0.73438
0.61523
0.46094
0.41992
0.55078
0.67578
0.73047
0.74023
0.74023
0.74414
0.74414
0.74414
0.74414
0.74023
0.74023
0.73438
0.73047
0.72461
0.71484
0.70898
0.70508
0.69531
0.68555
0.66992
0.66016
0.65039
0.63477
0.625
0.625
0.625
0.62891
0.64453
0.66406
0.68555
0.69922
0.71484
0.7207
0.72461
0.73047
0.73438
0.73438
0.73438
0.74023
0.73438
0.73438
0.73047
0.73047
0.72461
0.72461
0.7207
0.7207
0.7207
0.72461
0.72461
0.7207
0.7207
0.72461
0.72461
0.72461
0.73047
0.73047
0.72461
0.73047
0.73438
0.72461
0.72461
0.7207
0.71484
0.71484
0.70508
0.69531
0.69531
0.69531
0.69531
0.69531
0.70508
0.70898
0.71484
0.71484
0.7207
0.71484
0.71484
0.7207
0.73047
0.73438
0.6543
0.5
0.39063
0.44531
0.58008
0.66992
0.69922
0.70508
0.70898
0.70898
0.71484
0.71484
0.71484
0.71484
0.70508
0.69922
0.69531
0.68945
0.68555
0.67969
0.67578
0.66406
0.6543
0.64063
0.625
0.60938
0.60547
0.5957
0.5957
0.5957
0.60547
0.61914
0.64063
0.6543
0.66992
0.68945
0.69922
0.70508
0.70898
0.70898
0.70898
0.70898
0.70898
0.70898
0.70898
0.70898
0.69922
0.69922
0.69922
0.69922
0.69922
0.69922
0.69922
0.69922
0.69922
0.69922
0.69922
0.69531
0.68945
0.68945
0.68945
0.68945
0.68945
0.68945
0.68555
0.68555
0.67969
0.67578
0.66992
0.66016
0.6543
0.6543
0.6543
0.6543
0.66016
0.66406
0.66992
0.67578
0.67578
0.67578
0.67578
0.67578
0.67969
0.68945
0.66992
0.57031
0.41016
0.3457
0.42969
0.55469
0.62891
0.6543
0.66016
0.66016
0.66406
0.66406
0.66016
0.6543
0.6543
0.6543
0.65039
0.64453
0.64063
0.63477
0.62891
0.61523
0.60938
0.60547
0.58984
0.57422
0.56445
0.55469
0.55078
0.55078
0.55469
0.56445
0.58008
0.59961
0.625
0.64063
0.64453
0.65039
0.6543
0.66016
0.66016
0.66406
0.66992
0.66016
0.6543
0.6543
0.6543
0.65039
0.65039
0.65039
0.65039
0.65039
0.65039
0.64453
0.64453
0.64453
0.64453
0.64453
0.64453
0.65039
0.65039
0.65039
0.65039
0.65039
0.65039
0.65039
0.65039
0.64453
0.64063
0.64063
0.63477
0.625
0.625
0.625
0.625
0.625
0.63477
0.64453
0.65039
0.65039
0.64453
0.65039
0.65039
0.65039
0.66016
0.64453
0.55078
0.39453
0.32031
0.4043
0.53516
0.60938
0.62891
0.63477
0.64453
0.65039
0.6543
0.6543
0.65039
0.65039
0.64453
0.64063
0.63477
0.63477
0.62891
0.625
0.61523
0.60547
0.5957
0.58008
0.56445
0.55469
0.54492
0.53906
0.53906
0.53906
0.55078
0.56445
0.58398
0.60547
0.625
0.64453
0.65039
0.6543
0.66016
0.66406
0.66016
0.66016
0.66016
0.66016
0.66016
0.66016
0.66016
0.6543
0.6543
0.6543
0.65039
0.65039
0.6543
0.65039
0.6543
0.6543
0.65039
0.65039
0.6543
0.6543
0.6543
0.65039
0.65039
0.65039
0.6543
0.6543
0.65039
0.64453
0.63477
0.62891
0.625
0.625
0.625
0.62891
0.63477
0.63477
0.64453
0.65039
0.6543
0.65039
0.6543
0.6543
0.66016
0.66406
0.66992
0.58984
0.43945
0.32422
0.37109
0.50977
0.60938
0.64453
0.65039
0.65039
0.65039
0.6543
0.6543
0.6543
0.6543
0.65039
0.65039
0.64453
0.64063
0.63477
0.62891
0.625
0.61523
0.60547
0.5957
0.58008
0.56445
0.56055
0.55078
0.54492
0.54492
0.55469
0.57422
0.59961
0.61914
0.63477
0.64453
0.6543
0.66016
0.66406
0.66992
0.67578
0.67578
0.67578
0.66992
0.66992
0.66992
0.66406
0.66992
0.66992
0.66992
0.66992
0.66992
0.66406
0.66406
0.66406
0.66016
0.66016
0.66016
0.66016
0.66016
0.66406
0.66016
0.66016
0.66016
0.6543
0.6543
0.6543
0.6543
0.6543
0.64453
0.64063
0.63477
0.63477
0.63477
0.63477
0.64453
0.65039
0.6543
0.66016
0.66016
0.66016
0.66016
0.66016
0.66992
0.67969
0.66406
0.56055
0.40039
0.33984
0.43945
0.57422
0.64063
0.66016
0.66406
0.66992
0.67578
0.66992
0.66992
0.66406
0.66016
0.66016
0.66016
0.6543
0.6543
0.64453
0.64063
0.62891
0.61914
0.60938
0.59961
0.58984
0.58008
0.57031
0.57031
0.56445
0.57031
0.58008
0.59961
0.61914
0.63477
0.6543
0.66992
0.67578
0.67969
0.68555
0.68555
0.67969
0.67969
0.67969
0.68555
0.68555
0.67969
0.67969
0.67969
0.67578
0.67578
0.67578
0.67578
0.67578
0.67578
0.67578
0.67578
0.67578
0.67578
0.67578
0.67969
0.67969
0.67969
0.68555
0.68555
0.68555
0.67969
0.67969
0.67578
0.66992
0.66992
0.66016
0.66016
0.66016
0.66016
0.66016
0.66016
0.66992
0.67578
0.67969
0.68945
0.68945
0.68945
0.68945
0.68945
0.69922
0.69531
0.61914
0.4707
0.37109
0.41992
0.53906
0.61914
0.65039
0.66406
0.67578
0.67969
0.68945
0.68945
0.68945
0.67969
0.67578
0.67578
0.66992
0.66992
0.66016
0.6543
0.65039
0.64453
0.62891
0.61523
0.60547
0.58984
0.58398
0.58008
0.57422
0.58008
0.58984
0.60547
0.625
0.64453
0.66016
0.66992
0.67969
0.68945
0.69531
0.69531
0.69922
0.69531
0.69531
0.69531
0.69531
0.69531
0.69922
0.69922
0.69531
0.69531
0.68945
0.68945
0.68945
0.68555
0.68555
0.68555
0.68555
0.68555
0.68555
0.68555
0.68555
0.68555
0.68555
0.68945
0.68945
0.68945
0.68945
0.67969
0.67578
0.67578
0.66992
0.66016
0.66016
0.66016
0.66406
0.66992
0.67578
0.67969
0.68945
0.68945
0.69531
0.69531
0.69922
0.69922
0.70508
0.70898
0.65039
0.50977
0.375
0.36523
0.5293
0.64063
0.67578
0.67969
0.67969
0.67969
0.68555
0.68945
0.68555
0.68555
0.67969
0.67969
0.67969
0.67578
0.66992
0.66406
0.66016
0.65039
0.64063
0.62891
0.61914
0.60547
0.58984
0.58398
0.58008
0.58398
0.5957
0.60938
0.62891
0.64453
0.66406
0.67578
0.68555
0.68945
0.69531
0.69922
0.70508
0.70508
0.69922
0.70508
0.69922
0.69922
0.69922
0.69922
0.69922
0.69922
0.69922
0.69922
0.69922
0.69922
0.69922
0.69922
0.69922
0.70508
0.70508
0.70898
0.70508
0.69922
0.69922
0.69922
0.69531
0.69531
0.69531
0.69531
0.68945
0.68555
0.67578
0.67578
0.66992
0.66992
0.66992
0.67578
0.67969
0.69531
0.69922
0.70508
0.69922
0.69922
0.69922
0.69922
0.70898
0.71484
0.66406
0.52539
0.39063
0.375
0.53516
0.64453
0.68555
0.69531
0.69922
0.70508
0.70898
0.70898
0.70898
0.69922
0.69531
0.69531
0.69531
0.68945
0.68555
0.67969
0.66992
0.66016
0.65039
0.63477
0.625
0.61523
0.60547
0.59961
0.59961
0.59961
0.60547
0.61914
0.64063
0.66016
0.67578
0.69531
0.70508
0.70898
0.71484
0.71484
0.71484
0.71484
0.71484
0.7207
0.7207
0.7207
0.71484
0.71484
0.70898
0.70898
0.70898
0.70898
0.70898
0.71484
0.71484
0.71484
0.70898
0.70898
0.70898
0.70898
0.71484
0.71484
0.71484
0.71484
0.71484
0.70898
0.70508
0.69922
0.69922
0.69531
0.69531
0.68945
0.67969
0.67969
0.67969
0.67969
0.68555
0.69531
0.70898
0.71484
0.71484
0.71484
0.71484
0.71484
0.71484
0.72461
0.70898
0.60938
0.45508
0.39063
0.47461
0.60547
0.66992
0.68945
0.69922
0.69922
0.70898
0.70898
0.71484
0.70898
0.70508
0.69922
0.69922
0.69531
0.68945
0.68555
0.67578
0.66992
0.66016
0.6543
0.64063
0.625
0.61523
0.60938
0.60547
0.60547
0.60547
0.61914
0.63477
0.6543
0.66992
0.68555
0.69922
0.70898
0.71484
0.71484
0.71484
0.70898
0.70898
0.70898
0.70898
0.71484
0.71484
0.71484
0.71484
0.70898
0.70898
0.70898
0.70898
0.70898
0.70898
0.71484
0.70898
0.70898
0.70898
0.70898
0.70898
0.70898
0.70898
0.71484
0.71484
0.71484
0.71484
0.70898
0.70898
0.69922
0.69922
0.69531
0.68945
0.68555
0.68555
0.68945
0.68945
0.68945
0.69531
0.69922
0.70508
0.70898
0.71484
0.71484
0.71484
0.71484
0.72461
0.71484
0.62891
0.47461
0.38477
0.46094
0.58984
0.66406
0.68945
0.69922
0.70898
0.71484
0.71484
0.71484
0.71484
0.71484
0.70898
0.70508
0.69922
0.69531
0.68945
0.68555
0.67578
0.66992
0.6543
0.64063
0.625
0.61523
0.60547
0.60547
0.60547
0.60547
0.61914
0.63477
0.65039
0.67578
0.68945
0.70898
0.71484
0.7207
0.72461
0.73047
0.73047
0.73047
0.73047
0.72461
0.72461
0.72461
0.7207
0.7207
0.7207
0.7207
0.7207
0.71484
0.71484
0.71484
0.71484
0.71484
0.7207
0.7207
0.7207
0.71484
0.71484
0.70898
0.70898
0.70898
0.70898
0.71484
0.71484
0.70898
0.69922
0.69531
0.68555
0.67969
0.67969
0.67969
0.68555
0.68945
0.69531
0.70508
0.70898
0.70898
0.70898
0.70898
0.70898
0.71484
0.7207
0.72461
0.67578
0.54492
0.4043
0.39063
0.54492
0.6543
0.69922
0.70898
0.70898
0.71484
0.7207
0.7207
0.71484
0.71484
0.70898
0.70898
0.70508
0.69922
0.68945
0.67969
0.66992
0.66016
0.6543
0.65039
0.62891
0.61523
0.60547
0.59961
0.5957
0.5957
0.60938
0.61914
0.64453
0.66992
0.68555
0.69922
0.70898
0.71484
0.7207
0.72461
0.72461
0.73047
0.73047
0.72461
0.72461
0.72461
0.72461
0.7207
0.71484
0.71484
0.7207
0.7207
0.7207
0.7207
0.71484
0.71484
0.70898
0.71484
0.71484
0.7207
0.7207
0.72461
0.7207
0.7207
0.7207
0.7207
0.7207
0.71484
0.71484
0.70898
0.70508
0.69531
0.68945
0.68555
0.68555
0.68555
0.68945
0.69922
0.70898
0.71484
0.7207
0.7207
0.7207
0.7207
0.7207
0.73438
0.7207
0.63477
0.48047
0.39063
0.46484
0.59961
0.67969
0.70508
0.70898
0.71484
0.7207
0.71484
0.71484
0.70898
0.70898
0.70508
0.70508
0.70508
0.69922
0.69531
0.68945
0.67969
0.66992
0.6543
0.64063
0.62891
0.61914
0.61523
0.60938
0.60938
0.60938
0.61914
0.64063
0.66016
0.68555
0.69922
0.70898
0.7207
0.72461
0.72461
0.72461
0.72461
0.72461
0.72461
0.72461
0.7207
0.7207
0.71484
0.70898
0.70898
0.70898
0.70898
0.70898
0.71484
0.7207
0.71484
0.71484
0.71484
0.70898
0.70898
0.70898
0.70898
0.71484
0.71484
0.71484
0.71484
0.70898
0.70898
0.70508
0.69922
0.69922
0.69922
0.69531
0.69531
0.68945
0.68945
0.68945
0.68945
0.69531
0.69922
0.70898
0.71484
0.71484
0.71484
0.71484
0.7207
0.73047
0.73438
0.66992
0.5293
0.41016
0.44531
0.56445
0.66016
0.68945
0.69922
0.70898
0.7207
0.72461
0.72461
0.7207
0.7207
0.71484
0.71484
0.71484
0.70898
0.69922
0.69531
0.68945
0.67969
0.66406
0.65039
0.63477
0.62891
0.61914
0.61523
0.60938
0.61523
0.61523
0.62891
0.65039
0.66992
0.68945
0.70508
0.71484
0.7207
0.7207
0.72461
0.72461
0.7207
0.7207
0.7207
0.7207
0.7207
0.7207
0.71484
0.71484
0.71484
0.71484
0.70898
0.70898
0.70898
0.71484
0.71484
0.71484
0.71484
0.70898
0.70898
0.70898
0.71484
0.71484
0.71484
0.71484
0.71484
0.71484
0.71484
0.70898
0.69922
0.69922
0.69531
0.68945
0.68555
0.68945
0.68945
0.68945
0.69531
0.69922
0.70898
0.71484
0.70898
0.70898
0.71484
0.71484
0.7207
0.72461
0.62891
0.47461
0.38477
0.46094
0.5957
0.67578
0.69922
0.70508
0.70898
0.71484
0.7207
0.71484
0.71484
0.71484
0.70898
0.70508
0.69531
0.68945
0.68555
0.67969
0.67578
0.66406
0.6543
0.65039
0.63477
0.61523
0.60547
0.59961
0.5957
0.59961
0.60938
0.62891
0.65039
0.66406
0.68555
0.69922
0.70898
0.71484
0.72461
0.73047
0.73047
0.72461
0.72461
0.7207
0.7207
0.7207
0.7207
0.7207
0.71484
0.7207
0.7207
0.7207
0.7207
0.71484
0.71484
0.71484
0.71484
0.71484
0.71484
0.71484
0.70898
0.70898
0.70898
0.70898
0.70898
0.71484
0.71484
0.71484
0.70898
0.70508
0.69531
0.68555
0.67969
0.68555
0.68945
0.69531
0.69922
0.70898
0.71484
0.71484
0.71484
0.71484
0.71484
0.7207
0.73047
0.73438
0.67969
0.53906
0.40039
0.39063
0.55469
0.66406
0.70508
0.71484
0.71484
0.7207
0.7207
0.71484
0.71484
0.71484
0.70898
0.70898
0.70898
0.69922
0.69531
0.68945
0.67969
0.66992
0.66016
0.65039
0.63477
0.61914
0.60938
0.59961
0.59961
0.59961
0.60938
0.625
0.64453
0.66406
0.68555
0.69922
0.70898
0.71484
0.7207
0.7207
0.7207
0.7207
0.72461
0.72461
0.73047
0.7207
0.7207
0.71484
0.71484
0.71484
0.7207
0.7207
0.7207
0.7207
0.7207
0.7207
0.71484
0.71484
0.7207
0.71484
0.71484
0.71484
0.71484
0.7207
0.7207
0.7207
0.71484
0.70898
0.70898
0.70508
0.69922
0.68945
0.68555
0.68555
0.68555
0.68945
0.69531
0.70898
0.71484
0.7207
0.7207
0.72461
0.7207
0.7207
0.73047
0.74023
0.70508
0.58398
0.43555
0.40039
0.52539
0.64453
0.70508
0.7207
0.7207
0.72461
0.73047
0.73438
0.72461
0.72461
0.7207
0.71484
0.70898
0.70508
0.69922
0.69922
0.69531
0.68555
0.67578
0.66016
0.64453
0.63477
0.625
0.625
0.625
0.62891
0.63477
0.64453
0.66016
0.67969
0.70508
0.7207
0.73438
0.74414
0.75
0.74414
0.74414
0.74023
0.74023
0.74023
0.74023
0.74023
0.73438
0.73438
0.73047
0.72461
0.72461
0.7207
0.71484
0.71484
0.71484
0.7207
0.7207
0.7207
0.7207
0.7207
0.7207
0.7207
0.7207
0.7207
0.7207
0.7207
0.7207
0.71484
0.71484
0.70898
0.70898
0.70508
0.69922
0.70508
0.70508
0.70508
0.70898
0.71484
0.72461
0.73047
0.73047
0.73438
0.73047
0.73047
0.73438
0.74023
0.74414
0.6543
0.5
0.39453
0.44531
0.57422
0.66016
0.68945
0.70508
0.71484
0.7207
0.7207
0.72461
0.7207
0.7207
0.7207
0.71484
0.70898
0.69922
0.69922
0.69531
0.68555
0.67969
0.66992
0.6543
0.64453
0.62891
0.61914
0.61523
0.61523
0.61914
0.62891
0.65039
0.66992
0.68945
0.70508
0.71484
0.72461
0.73438
0.74023
0.74023
0.74023
0.73438
0.73047
0.72461
0.7207
0.7207
0.7207
0.7207
0.7207
0.7207
0.71484
0.71484
0.7207
0.7207
0.7207
0.7207
0.7207
0.7207
0.7207
0.7207
0.7207
0.7207
0.71484
0.71484
0.7207
0.7207
0.7207
0.7207
0.71484
0.70508
0.69531
0.68945
0.68555
0.68555
0.68945
0.68945
0.69922
0.70898
0.71484
0.71484
0.71484
0.71484
0.71484
0.71484
0.72461
0.7207
0.6543
0.50977
0.39453
0.43945
0.57422
0.66992
0.69922
0.70898
0.70898
0.71484
0.71484
0.71484
0.70898
0.70898
0.70898
0.70508
0.69922
0.69531
0.68945
0.68555
0.67578
0.66016
0.6543
0.64063
0.62891
0.61914
0.61523
0.60547
0.60547
0.60547
0.61523
0.62891
0.65039
0.67578
0.68945
0.70898
0.7207
0.72461
0.72461
0.72461
0.73047
0.73438
0.73438
0.73438
0.73438
0.72461
0.72461
0.7207
0.7207
0.7207
0.7207
0.7207
0.7207
0.7207
0.7207
0.7207
0.7207
0.71484
0.71484
0.7207
0.7207
0.7207
0.7207
0.7207
0.71484
0.71484
0.71484
0.70898
0.70898
0.70898
0.69922
0.68945
0.68945
0.68945
0.68945
0.68945
0.69922
0.70508
0.70898
0.71484
0.71484
0.71484
0.71484
0.71484
0.72461
0.70898
0.63477
0.48438
0.38477
0.45508
0.5957
0.67969
0.70898
0.70898
0.70898
0.71484
0.7207
0.7207
0.71484
0.71484
0.70898
0.69922
0.69531
0.68945
0.68555
0.67969
0.66992
0.66016
0.6543
0.64063
0.625
0.61523
0.60547
0.60547
0.60547
0.60547
0.61523
0.62891
0.65039
0.66992
0.68945
0.70508
0.71484
0.7207
0.7207
0.72461
0.72461
0.72461
0.7207
0.71484
0.71484
0.71484
0.71484
0.70898
0.70898
0.71484
0.71484
0.70898
0.70898
0.70898
0.70898
0.70898
0.70898
0.70898
0.70898
0.70898
0.70898
0.70898
0.70898
0.70898
0.70898
0.70898
0.69922
0.69531
0.68945
0.68555
0.67969
0.67578
0.67578
0.67578
0.67578
0.67969
0.68945
0.69922
0.69922
0.70508
0.70898
0.70898
0.71484
0.71484
0.72461
0.69531
0.58984
0.43555
0.38477
0.48438
0.60938
0.67969
0.69531
0.69922
0.69922
0.70898
0.70898
0.70898
0.70898
0.70508
0.69922
0.69531
0.68945
0.68555
0.67969
0.67578
0.66992
0.66016
0.65039
0.64063
0.62891
0.61523
0.60547
0.59961
0.5957
0.60547
0.61523
0.62891
0.6543
0.67578
0.68945
0.69531
0.69922
0.70898
0.70898
0.71484
0.71484
0.71484
0.71484
0.70898
0.70898
0.70508
0.70508
0.70508
0.70898
0.70898
0.70898
0.70898
0.70898
0.70898
0.70898
0.70898
0.70898
0.71484
0.71484
0.71484
0.71484
0.71484
0.71484
0.70898
0.70898
0.70898
0.69922
0.69531
0.68945
0.67969
0.67578
0.66992
0.67578
0.67578
0.67969
0.68945
0.69922
0.70898
0.70898
0.70508
0.70508
0.70508
0.70898
0.7207
0.73047
0.69531
0.57031
0.41992
0.38477
0.50586
0.625
0.67969
0.69531
0.69922
0.70898
0.70898
0.71484
0.70898
0.70508
0.69922
0.69922
0.69922
0.69531
0.68945
0.68555
0.67578
0.66992
0.66016
0.65039
0.63477
0.625
0.61523
0.60938
0.60547
0.60547
0.61523
0.625
0.64453
0.66406
0.68555
0.69922
0.71484
0.7207
0.72461
0.72461
0.7207
0.7207
0.7207
0.7207
0.7207
0.71484
0.71484
0.70898
0.70898
0.70898
0.70898
0.70898
0.70898
0.70898
0.71484
0.70898
0.70898
0.70898
0.70898
0.70898
0.70898
0.70898
0.70898
0.71484
0.71484
0.70898
0.70508
0.69922
0.69531
0.68945
0.68555
0.67969
0.67969
0.67969
0.68555
0.68945
0.69922
0.70508
0.70898
0.70898
0.70898
0.71484
0.71484
0.7207
0.72461
0.69922
0.5957
0.44531
0.39453
0.5
0.63477
0.69531
0.70508
0.70898
0.71484
0.7207
0.7207
0.7207
0.7207
0.71484
0.70898
0.70898
0.70508
0.69922
0.69531
0.68945
0.68555
0.67969
0.67578
0.6543
0.62891
0.61523
0.60938
0.60547
0.60938
0.61523
0.62891
0.64453
0.66406
0.68555
0.69922
0.70898
0.71484
0.7207
0.72461
0.73438
0.73438
0.73438
0.73047
0.73047
0.73047
0.72461
0.72461
0.72461
0.72461
0.72461
0.72461
0.7207
0.7207
0.71484
0.7207
0.7207
0.72461
0.72461
0.72461
0.72461
0.72461
0.72461
0.72461
0.72461
0.72461
0.7207
0.7207
0.70898
0.69922
0.69531
0.68945
0.68945
0.69531
0.69922
0.70898
0.7207
0.72461
0.73438
0.73438
0.73438
0.73438
0.73438
0.74414
0.75
0.70508
0.57422
0.42578
0.40039
0.54492
0.66016
0.71484
0.72461
0.72461
0.73047
0.73438
0.72461
0.7207
0.7207
0.71484
0.71484
0.71484
0.70898
0.70508
0.69531
0.68945
0.67969
0.66992
0.6543
0.65039
0.63477
0.62891
0.61914
0.61523
0.61914
0.62891
0.64453
0.66406
0.68945
0.70508
0.7207
0.73047
0.73438
0.73438
0.73438
0.74023
0.74023
0.73438
0.73438
0.73438
0.73438
0.73047
0.72461
0.7207
0.7207
0.7207
0.7207
0.72461
0.7207
0.7207
0.7207
0.7207
0.7207
0.72461
0.72461
0.72461
0.72461
0.72461
0.72461
0.72461
0.71484
0.70898
0.70898
0.70508
0.69922
0.69531
0.69531
0.69531
0.69531
0.69531
0.69922
0.71484
0.7207
0.7207
0.7207
0.72461
0.72461
0.72461
0.73047
0.73438
0.69922
0.57422
0.42969
0.40039
0.5293
0.64063
0.68945
0.70508
0.71484
0.7207
0.7207
0.72461
0.72461
0.72461
0.7207
0.7207
0.71484
0.70898
0.70508
0.69922
0.69922
0.68945
0.67969
0.66992
0.6543
0.64453
0.63477
0.625
0.61914
0.61914
0.62891
0.64063
0.6543
0.67578
0.69531
0.70898
0.71484
0.72461
0.73047
0.73438
0.73047
0.72461
0.72461
0.72461
0.72461
0.72461
0.72461
0.72461
0.72461
0.72461
0.7207
0.7207
0.7207
0.7207
0.72461
0.72461
0.72461
0.73047
0.73047
0.72461
0.72461
0.72461
0.72461
0.72461
0.72461
0.72461
0.7207
0.71484
0.70508
0.69922
0.68945
0.68945
0.68945
0.68945
0.69531
0.69922
0.70508
0.71484
0.71484
0.7207
0.71484
0.71484
0.71484
0.72461
0.73438
0.68555
0.54492
0.4043
0.38477
0.53906
0.6543
0.69922
0.70898
0.71484
0.71484
0.7207
0.7207
0.71484
0.71484
0.71484
0.70898
0.70898
0.70508
0.69922
0.69531
0.68945
0.67969
0.66992
0.66016
0.65039
0.62891
0.61523
0.60547
0.59961
0.60547
0.61523
0.62891
0.64453
0.66406
0.67969
0.69531
0.70508
0.70898
0.71484
0.7207
0.7207
0.71484
0.71484
0.71484
0.71484
0.70898
0.70898
0.70898
0.70508
0.70508
0.70898
0.70898
0.70898
0.70898
0.70898
0.70898
0.70898
0.70898
0.71484
0.71484
0.71484
0.71484
0.71484
0.71484
0.71484
0.70898
0.70898
0.69922
0.69531
0.68945
0.68555
0.67969
0.67969
0.67969
0.68945
0.69531
0.69922
0.70898
0.70898
0.70898
0.70898
0.70898
0.71484
0.7207
0.69922
0.58984
0.43555
0.38086
0.48438
0.61523
0.67969
0.69531
0.69922
0.69922
0.70898
0.70898
0.71484
0.70898
0.70508
0.69922
0.69531
0.68945
0.68555
0.67969
0.67578
0.66992
0.66016
0.65039
0.63477
0.625
0.60938
0.60547
0.60547
0.60547
0.60938
0.61914
0.64063
0.6543
0.67578
0.68945
0.70508
0.71484
0.71484
0.7207
0.7207
0.7207
0.71484
0.71484
0.71484
0.71484
0.71484
0.71484
0.71484
0.70898
0.70508
0.69922
0.69922
0.69922
0.70508
0.70898
0.70898
0.71484
0.70898
0.70898
0.70898
0.71484
0.71484
0.71484
0.71484
0.71484
0.70898
0.70508
0.69922
0.68945
0.67969
0.67969
0.67578
0.67969
0.68555
0.69531
0.69922
0.70508
0.70508
0.70508
0.70508
0.70508
0.71484
0.72461
0.70898
0.60938
0.44922
0.37109
0.46094
0.5957
0.66992
0.69531
0.69922
0.70508
0.70898
0.70898
0.70508
0.69922
0.69922
0.69922
0.69922
0.69531
0.68945
0.67969
0.67578
0.66016
0.65039
0.64453
0.63477
0.625
0.61523
0.60547
0.5957
0.5957
0.5957
0.60938
0.62891
0.65039
0.66992
0.68555
0.69531
0.69922
0.70508
0.70898
0.70898
0.70898
0.70898
0.71484
0.71484
0.71484
0.70898
0.70898
0.70898
0.70898
0.70898
0.70508
0.70508
0.70508
0.70508
0.70508
0.70508
0.70508
0.70508
0.70898
0.71484
0.71484
0.71484
0.71484
0.71484
0.70898
0.70508
0.69922
0.69531
0.69531
0.68945
0.67969
0.67969
0.67969
0.67969
0.68555
0.69531
0.69922
0.70898
0.70898
0.70898
0.70898
0.70898
0.70898
0.7207
0.69922
0.60547
0.44922
0.38477
0.46484
0.58984
0.6543
0.67969
0.69531
0.69922
0.70898
0.71484
0.71484
0.70898
0.70898
0.70508
0.69922
0.69531
0.69531
0.68945
0.68555
0.67578
0.66406
0.6543
0.64453
0.62891
0.61523
0.60938
0.60938
0.60938
0.60938
0.625
0.64063
0.6543
0.67578
0.68945
0.70898
0.71484
0.7207
0.7207
0.72461
0.72461
0.7207
0.7207
0.7207
0.71484
0.71484
0.71484
0.71484
0.71484
0.71484
0.70898
0.70898
0.70898
0.70508
0.70898
0.70898
0.70898
0.70898
0.71484
0.71484
0.70898
0.70898
0.70898
0.70898
0.70898
0.70898
0.70898
0.69922
0.69531
0.68945
0.68945
0.68945
0.68945
0.68945
0.69922
0.70898
0.71484
0.71484
0.71484
0.71484
0.70898
0.71484
0.72461
0.73047
0.64063
0.48438
0.39063
0.44531
0.58008
0.66992
0.69531
0.70508
0.70898
0.71484
0.71484
0.70898
0.70898
0.70898
0.70508
0.70508
0.69922
0.69922
0.69531
0.68555
0.67578
0.66406
0.6543
0.64453
0.62891
0.61914
0.60938
0.60938
0.60938
0.60938
0.61914
0.63477
0.6543
0.67969
0.69531
0.70898
0.71484
0.7207
0.72461
0.73047
0.73047
0.73047
0.73047
0.72461
0.72461
0.72461
0.72461
0.72461
0.7207
0.7207
0.7207
0.7207
0.7207
0.72461
0.7207
0.71484
0.71484
0.71484
0.71484
0.71484
0.7207
0.7207
0.71484
0.71484
0.71484
0.71484
0.70898
0.70508
0.69922
0.69531
0.69531
0.68945
0.68945
0.68945
0.68945
0.69922
0.70898
0.71484
0.71484
0.71484
0.71484
0.7207
0.7207
0.72461
0.69531
0.58008
0.42969
0.39063
0.50977
0.63477
0.69531
0.70898
0.70898
0.70898
0.71484
0.7207
0.7207
0.71484
0.71484
0.70898
0.69922
0.69922
0.69531
0.68945
0.67969
0.67578
0.66406
0.6543
0.64453
0.62891
0.61523
0.60938
0.60547
0.60547
0.61523
0.62891
0.64453
0.66406
0.68555
0.69922
0.71484
0.7207
0.72461
0.73047
0.72461
0.72461
0.72461
0.72461
0.72461
0.7207
0.7207
0.7207
0.7207
0.7207
0.7207
0.7207
0.7207
0.7207
0.7207
0.71484
0.7207
0.7207
0.7207
0.7207
0.7207
0.7207
0.7207
0.7207
0.7207
0.7207
0.7207
0.71484
0.70898
0.70508
0.69922
0.69531
0.69531
0.69531
0.69922
0.70508
0.70898
0.7207
0.7207
0.7207
0.7207
0.7207
0.72461
0.73438
0.74023
0.69922
0.57031
0.42578
0.40039
0.5293
0.64453
0.69531
0.70898
0.71484
0.7207
0.7207
0.72461
0.7207
0.71484
0.70898
0.70898
0.70898
0.70508
0.69922
0.69531
0.68945
0.67969
0.66992
0.6543
0.64453
0.63477
0.625
0.61523
0.60938
0.60938
0.61523
0.62891
0.65039
0.66992
0.68945
0.70508
0.71484
0.7207
0.7207
0.71484
0.7207
0.7207
0.7207
0.7207
0.7207
0.7207
0.7207
0.7207
0.71484
0.71484
0.71484
0.71484
0.71484
0.7207
0.71484
0.71484
0.71484
0.71484
0.71484
0.71484
0.71484
0.71484
0.71484
0.71484
0.71484
0.70898
0.70508
0.69922
0.69922
0.69531
0.68945
0.68945
0.67969
0.67969
0.67969
0.67969
0.68945
0.69531
0.69922
0.70508
0.70508
0.70898
0.70898
0.70898
0.71484
0.7207
0.65039
0.50586
0.39453
0.43555
0.56445
0.66016
0.68945
0.69922
0.70898
0.71484
0.7207
0.7207
0.71484
0.71484
0.71484
0.70898
0.70898
0.69922
0.69531
0.69531
0.68945
0.67578
0.66016
0.65039
0.63477
0.61914
0.60938
0.60938
0.60938
0.61523
0.625
0.63477
0.6543
0.67578
0.68945
0.70508
0.71484
0.7207
0.72461
0.72461
0.73047
0.72461
0.72461
0.72461
0.72461
0.72461
0.72461
0.72461
0.7207
0.7207
0.71484
0.71484
0.7207
0.71484
0.71484
0.71484
0.71484
0.71484
0.7207
0.7207
0.7207
0.7207
0.7207
0.7207
0.72461
0.72461
0.7207
0.71484
0.70898
0.69922
0.69531
0.68945
0.68945
0.68945
0.69531
0.69922
0.70898
0.71484
0.7207
0.7207
0.7207
0.71484
0.7207
0.72461
0.73047
0.66992
0.53516
0.4043
0.39453
0.55469
0.66406
0.70508
0.70898
0.70898
0.71484
0.71484
0.71484
0.71484
0.71484
0.71484
0.70898
0.70508
0.69922
0.69531
0.68945
0.68945
0.67969
0.66992
0.66016
0.64453
0.62891
0.61523
0.60547
0.60547
0.60547
0.61523
0.62891
0.65039
0.66992
0.68555
0.69922
0.71484
0.7207
0.72461
0.72461
0.72461
0.72461
0.72461
0.72461
0.72461
0.7207
0.71484
0.71484
0.71484
0.71484
0.71484
0.71484
0.71484
0.71484
0.70898
0.70898
0.70898
0.70898
0.70898
0.71484
0.71484
0.7207
0.7207
0.71484
0.71484
0.71484
0.71484
0.71484
0.71484
0.70508
0.69531
0.68945
0.68945
0.68945
0.68945
0.69531
0.70508
0.71484
0.7207
0.7207
0.72461
0.7207
0.7207
0.72461
0.73438
0.70508
0.58984
0.43555
0.39063
0.5
0.625
0.68945
0.70508
0.70898
0.70898
0.71484
0.71484
0.70898
0.70898
0.69922
0.69922
0.69531
0.69531
0.69531
0.68945
0.67969
0.66992
0.66016
0.65039
0.63477
0.62891
0.61523
0.60938
0.60547
0.60547
0.61523
0.625
0.64453
0.66406
0.68555
0.70508
0.7207
0.72461
0.73047
0.73438
0.73438
0.73438
0.73438
0.73438
0.73047
0.73047
0.73047
0.73047
0.72461
0.7207
0.71484
0.71484
0.71484
0.7207
0.7207
0.7207
0.71484
0.7207
0.7207
0.7207
0.71484
0.7207
0.7207
0.7207
0.7207
0.7207
0.7207
0.71484
0.70898
0.70898
0.70508
0.69531
0.69531
0.69531
0.69922
0.69531
0.69531
0.70898
0.71484
0.7207
0.72461
0.72461
0.7207
0.7207
0.72461
0.73047
0.69922
0.5957
0.43945
0.39453
0.49414
0.60938
0.67578
0.69531
0.70508
0.71484
0.7207
0.7207
0.7207
0.7207
0.7207
0.71484
0.70898
0.69922
0.69531
0.68945
0.68555
0.67969
0.67578
0.66406
0.65039
0.63477
0.625
0.61523
0.60938
0.60938
0.61523
0.62891
0.64063
0.6543
0.67578
0.68945
0.69922
0.70898
0.71484
0.7207
0.72461
0.7207
0.7207
0.7207
0.71484
0.71484
0.71484
0.71484
0.71484
0.71484
0.71484
0.70898
0.70898
0.70898
0.70898
0.71484
0.71484
0.71484
0.71484
0.71484
0.71484
0.71484
0.71484
0.70898
0.71484
0.71484
0.71484
0.70898
0.70508
0.69922
0.69531
0.68555
0.67969
0.67578
0.67969
0.67969
0.68945
0.69531
0.70508
0.70898
0.70898
0.70898
0.70898
0.70898
0.71484
0.7207
0.68555
0.56055
0.41602
0.38086
0.50977
0.62891
0.68555
0.69531
0.69922
0.70508
0.70898
0.70508
0.70508
0.70508
0.70508
0.69922
0.69922
0.69922
0.69531
0.68555
0.67578
0.66406
0.6543
0.64453
0.62891
0.61523
0.60938
0.60547
0.60547
0.59961
0.60938
0.625
0.64453
0.66406
0.68555
0.69922
0.70898
0.7207
0.72461
0.72461
0.72461
0.72461
0.73047
0.73047
0.72461
0.7207
0.7207
0.71484
0.71484
0.71484
0.7207
0.7207
0.71484
0.71484
0.71484
0.71484
0.71484
0.71484
0.71484
0.71484
0.7207
0.7207
0.7207
0.71484
0.71484
0.71484
0.71484
0.70898
0.70508
0.69922
0.69531
0.68945
0.68555
0.68555
0.68555
0.68945
0.69531
0.70898
0.71484
0.71484
0.7207
0.71484
0.71484
0.71484
0.72461
0.70508
0.60547
0.45508
0.39453
0.49023
0.61914
0.68945
0.70508
0.70898
0.71484
0.7207
0.7207
0.71484
0.71484
0.70898
0.69922
0.69531
0.69531
0.68945
0.68945
0.68555
0.67969
0.66992
0.6543
0.63477
0.61914
0.60938
0.60547
0.60547
0.60547
0.60938
0.61914
0.64063
0.6543
0.67578
0.69531
0.70508
0.71484
0.7207
0.72461
0.72461
0.7207
0.7207
0.7207
0.72461
0.72461
0.72461
0.7207
0.7207
0.7207
0.7207
0.71484
0.7207
0.7207
0.71484
0.71484
0.71484
0.71484
0.71484
0.71484
0.71484
0.71484
0.71484
0.71484
0.71484
0.71484
0.71484
0.71484
0.70508
0.69922
0.69531
0.68945
0.68945
0.68555
0.68555
0.68555
0.69531
0.69922
0.70898
0.7207
0.7207
0.72461
0.72461
0.72461
0.73438
0.73438
0.68555
0.53906
0.39453
0.38477
0.54492
0.66016
0.70508
0.70898
0.71484
0.71484
0.7207
0.7207
0.71484
0.71484
0.70898
0.70898
0.70508
0.69922
0.69531
0.68555
0.67969
0.67578
0.66406
0.6543
0.64453
0.625
0.60938
0.60547
0.60547
0.60547
0.61523
0.62891
0.65039
0.66992
0.68945
0.69922
0.70898
0.71484
0.7207
0.7207
0.72461
0.72461
0.72461
0.72461
0.7207
0.7207
0.7207
0.7207
0.7207
0.7207
0.7207
0.7207
0.7207
0.7207
0.71484
0.71484
0.71484
0.71484
0.7207
0.7207
0.7207
0.7207
0.7207
0.7207
0.7207
0.7207
0.7207
0.71484
0.70898
0.70508
0.69922
0.69531
0.68945
0.68555
0.68555
0.68945
0.69531
0.70508
0.71484
0.7207
0.7207
0.7207
0.7207
0.7207
0.72461
0.73438
0.70508
0.58398
0.42969
0.39063
0.5
0.61523
0.66992
0.68945
0.70508
0.71484
0.71484
0.7207
0.71484
0.71484
0.70898
0.70508
0.69922
0.69922
0.69531
0.68945
0.68555
0.67578
0.66992
0.6543
0.64453
0.63477
0.625
0.61523
0.61523
0.61523
0.61914
0.62891
0.64453
0.66406
0.68555
0.69922
0.70898
0.7207
0.72461
0.72461
0.72461
0.72461
0.72461
0.72461
0.72461
0.72461
0.72461
0.7207
0.7207
0.71484
0.71484
0.7207
0.71484
0.71484
0.71484
0.71484
0.70898
0.70898
0.70898
0.70898
0.70898
0.71484
0.71484
0.71484
0.71484
0.71484
0.71484
0.70898
0.69922
0.69922
0.69531
0.68945
0.68555
0.67969
0.67969
0.68945
0.69922
0.70898
0.71484
0.71484
0.71484
0.71484
0.71484
0.71484
0.72461
0.70898
0.62891
0.47461
0.39063
0.4707
0.60547
0.67969
0.70508
0.70898
0.70898
0.71484
0.71484
0.7207
0.71484
0.70898
0.70508
0.69922
0.69922
0.69531
0.68945
0.67969
0.67578
0.66406
0.6543
0.65039
0.62891
0.61523
0.60547
0.59961
0.59961
0.60547
0.61914
0.64063
0.6543
0.67578
0.69531
0.70508
0.71484
0.7207
0.72461
0.73047
0.73047
0.72461
0.72461
0.72461
0.72461
0.72461
0.72461
0.72461
0.72461
0.7207
0.7207
0.7207
0.7207
0.71484
0.71484
0.7207
0.7207
0.7207
0.7207
0.7207
0.71484
0.71484
0.71484
0.71484
0.7207
0.7207
0.71484
0.71484
0.70508
0.69531
0.68945
0.67969
0.67969
0.67969
0.67969
0.68945
0.69922
0.70508
0.70898
0.70898
0.70898
0.70898
0.71484
0.72461
0.73047
0.67969
0.53906
0.4043
0.39453
0.55469
0.66406
0.70508
0.70898
0.71484
0.7207
0.71484
0.71484
0.71484
0.71484
0.70898
0.70508
0.69922
0.69922
0.69531
0.68945
0.67969
0.66992
0.6543
0.64453
0.63477
0.625
0.61523
0.60938
0.60547
0.60547
0.60938
0.62891
0.65039
0.66992
0.68945
0.69922
0.70898
0.71484
0.7207
0.7207
0.7207
0.72461
0.72461
0.72461
0.72461
0.7207
0.71484
0.71484
0.71484
0.7207
0.7207
0.7207
0.7207
0.7207
0.7207
0.7207
0.7207
0.71484
0.71484
0.7207
0.72461
0.72461
0.72461
0.72461
0.7207
0.7207
0.71484
0.70898
0.70898
0.70508
0.69922
0.69531
0.69531
0.69531
0.68945
0.69531
0.69922
0.70898
0.71484
0.71484
0.7207
0.7207
0.7207
0.7207
0.73047
0.73438
0.6543
0.50977
0.39453
0.43945
0.57031
0.66016
0.69531
0.70508
0.71484
0.7207
0.72461
0.72461
0.72461
0.71484
0.70898
0.70508
0.70508
0.69922
0.69531
0.68945
0.67969
0.67578
0.66016
0.65039
0.63477
0.625
0.61523
0.60938
0.60938
0.61523
0.625
0.64063
0.6543
0.67578
0.69531
0.70508
0.71484
0.7207
0.72461
0.72461
0.73047
0.72461
0.7207
0.7207
0.72461
0.72461
0.72461
0.72461
0.72461
0.7207
0.7207
0.71484
0.70898
0.70898
0.70898
0.70898
0.70898
0.70898
0.70898
0.71484
0.71484
0.71484
0.71484
0.71484
0.70898
0.70898
0.70898
0.70508
0.69922
0.69531
0.68945
0.68555
0.68555
0.68555
0.68555
0.68945
0.69531
0.70508
0.70898
0.71484
0.71484
0.7207
0.7207
0.7207
0.72461
0.73047
0.66406
0.52539
0.40039
0.39063
0.55469
0.66016
0.68945
0.69922
0.70898
0.71484
0.71484
0.7207
0.7207
0.7207
0.71484
0.70898
0.70508
0.69922
0.69531
0.68555
0.67969
0.66992
0.66016
0.65039
0.63477
0.61914
0.60938
0.60938
0.60938
0.60938
0.61914
0.63477
0.6543
0.67578
0.68945
0.70508
0.71484
0.7207
0.7207
0.7207
0.7207
0.7207
0.7207
0.7207
0.72461
0.7207
0.7207
0.7207
0.7207
0.7207
0.7207
0.7207
0.7207
0.71484
0.71484
0.71484
0.7207
0.7207
0.7207
0.7207
0.7207
0.72461
0.72461
0.7207
0.7207
0.7207
0.7207
0.71484
0.71484
0.70898
0.69922
0.69531
0.68945
0.68555
0.68555
0.69531
0.70898
0.71484
0.7207
0.7207
0.7207
0.7207
0.7207
0.72461
0.73438
0.69922
0.58008
0.43555
0.40039
0.52539
0.65039
0.70508
0.71484
0.71484
0.7207
0.72461
0.72461
0.7207
0.7207
0.71484
0.70898
0.70508
0.69922
0.69922
0.68945
0.67969
0.67578
0.66016
0.65039
0.63477
0.625
0.61523
0.60938
0.60938
0.60938
0.61523
0.625
0.64453
0.66406
0.68555
0.70508
0.71484
0.7207
0.72461
0.72461
0.72461
0.72461
0.72461
0.72461
0.72461
0.72461
0.72461
0.7207
0.7207
0.7207
0.7207
0.71484
0.71484
0.71484
0.71484
0.71484
0.71484
0.71484
0.70898
0.70898
0.71484
0.71484
0.7207
0.71484
0.71484
0.71484
0.70898
0.70898
0.69922
0.69922
0.68945
0.68945
0.68945
0.68555
0.68555
0.68945
0.69531
0.70508
0.70898
0.71484
0.7207
0.7207
0.7207
0.7207
0.72461
0.73047
0.62891
0.47461
0.39063
0.46484
0.59961
0.67969
0.70898
0.70898
0.71484
0.71484
0.7207
0.7207
0.7207
0.71484
0.71484
0.70898
0.70508
0.69922
0.69531
0.68945
0.67969
0.67578
0.66016
0.65039
0.63477
0.625
0.61523
0.60938
0.60938
0.61523
0.625
0.64453
0.66016
0.67969
0.69531
0.70898
0.71484
0.7207
0.72461
0.72461
0.73047
0.73047
0.72461
0.72461
0.7207
0.7207
0.7207
0.7207
0.7207
0.7207
0.7207
0.71484
0.70898
0.70898
0.70898
0.70898
0.70898
0.71484
0.71484
0.70898
0.70898
0.70898
0.70898
0.70898
0.70898
0.71484
0.71484
0.70898
0.70508
0.69531
0.68945
0.68555
0.68555
0.68945
0.68945
0.68945
0.69531
0.69922
0.70508
0.70898
0.70898
0.70898
0.71484
0.71484
0.72461
0.73047
0.70508
0.59961
0.44531
0.39453
0.48438
0.60547
0.66992
0.68945
0.69922
0.70898
0.71484
0.71484
0.71484
0.71484
0.71484
0.70898
